#EXPORTTYPE:           ,DATA ALL                                                                          
#FILE:                 ,oligHawk001s1run5.ngb-sle                                                         
#FORMAT:               ,NETZSCH5                                                                          
#FTYPE:                ,ANSI                                                                              
#IDENTITY:             ,oligoclase hawk mine                                                              
#DECIMAL:              ,POINT                                                                             
#SEPARATOR:            ,COMMA                                                                             
#MTYPE:                ,DIL                                                                               
#INSTRUMENT:           ,NETZSCH DIL 402C                                                                  
#PROJECT:              ,feldspar                                                                          
#DATE/TIME:            ,8/27/2019 9:40:21 AM (UTC-5)                                                      
#CORR. FILE:           ,                                                                                  
#TEMPCAL:              ,TCALZERO.TMX                                                                      
#LABORATORY:           ,Mineral Physics                                                                   
#OPERATOR:             ,PAG                                                                               
#REMARK:               ,bare, norm start, for short plageioclase, sapphire, run 5 of hawk mine001 shortie 
#SAMPLE:               ,hawk 001 run5                                                                     
#SAMPLE LENGTH /mm:    ,6.991                                                                             
#MATERIAL:             ,sapphire stnd                                                                     
#MEASMODE:             ,Standard Expansion                                                                
#PURGE GAS 1:          ,ARGON                                                                             
#FLOW RATE 1 /(ml/min):,75                                                                                
#M.RANGE /µm:          ,500                                                                               
#CORR. CODE:           ,010                                                                               
#RANGE:                ,20.0°C/3.0(K/min)/1010.0°C                                                        
#SEGMENT:              ,S1/1                                                                              
#SEG. 1:               ,20.0°C/3.0(K/min)/1010.0°C                                                        

##Temp./°C,Time/min,dL/Lo,Alpha/(1/K)
  22.64300,  0.00000, 2.4370e-005, 1.5240e-005
  23.14300,  4.55172, 1.3945e-005,-2.1892e-005
  23.64300,  4.90025, 8.4982e-007,-2.5873e-005
  24.14300,  5.15088,-1.0521e-005,-2.2930e-005
  24.64300,  5.35767,-2.2187e-005,-1.9836e-005
  25.14300,  5.53751,-3.2245e-005,-2.0743e-005
  25.64300,  5.69977,-4.1634e-005,-1.7640e-005
  26.14300,  5.84892,-4.9932e-005,-1.7273e-005
  26.64300,  5.98796,-5.7785e-005,-1.4439e-005
  27.14300,  6.11963,-6.6605e-005,-1.5844e-005
  27.64300,  6.24564,-7.2726e-005,-1.2803e-005
  28.14300,  6.36670,-7.9769e-005,-1.2157e-005
  28.64300,  6.48416,-8.6120e-005,-1.1924e-005
  29.14300,  6.59845,-9.0808e-005,-1.0686e-005
  29.64300,  6.71054,-9.6696e-005,-9.7747e-006
  30.14300,  6.82005,-1.0135e-004,-8.8505e-006
  30.64300,  6.92755,-1.0528e-004,-7.2631e-006
  31.14300,  7.03351,-1.0860e-004,-6.9479e-006
  31.64300,  7.13814,-1.1182e-004,-6.1722e-006
  32.14300,  7.24170,-1.1504e-004,-5.5471e-006
  32.64300,  7.34400,-1.1733e-004,-4.1331e-006
  33.14300,  7.44536,-1.1972e-004,-4.8110e-006
  33.64300,  7.54656,-1.2148e-004,-2.4107e-006
  34.14300,  7.64731,-1.2222e-004,-2.4457e-006
  34.64300,  7.74780,-1.2426e-004,-2.8955e-006
  35.14300,  7.84818,-1.2463e-004,-4.7384e-007
  35.64300,  7.94816,-1.2485e-004,-9.1876e-007
  36.14300,  8.04838,-1.2524e-004,-5.9587e-008
  36.64300,  8.14874,-1.2534e-004, 4.8928e-007
  37.14300,  8.24906,-1.2496e-004, 8.4668e-007
  37.64300,  8.34940,-1.2446e-004, 8.2427e-007
  38.14300,  8.44971,-1.2366e-004, 1.5214e-006
  38.64300,  8.55006,-1.2310e-004, 2.4925e-006
  39.14300,  8.65078,-1.2212e-004, 1.6672e-006
  39.64300,  8.75166,-1.2030e-004, 3.5657e-006
  40.14300,  8.85253,-1.1872e-004, 4.5619e-006
  40.64300,  8.95341,-1.1628e-004, 4.4973e-006
  41.14300,  9.05427,-1.1373e-004, 4.1573e-006
  41.64300,  9.15520,-1.1191e-004, 3.6598e-006
  42.14300,  9.25612,-1.0929e-004, 5.2637e-006
  42.64300,  9.35684,-1.0803e-004, 4.2183e-006
  43.14300,  9.45749,-1.0522e-004, 5.0973e-006
  43.64300,  9.55803,-1.0227e-004, 6.0153e-006
  44.14300,  9.65856,-9.9412e-005, 4.3191e-006
  44.64300,  9.75880,-9.7061e-005, 6.1000e-006
  45.14300,  9.85883,-9.4508e-005, 5.5384e-006
  45.64300,  9.95876,-9.1058e-005, 6.0706e-006
  46.14300, 10.05850,-8.8514e-005, 6.5391e-006
  46.64300, 10.15786,-8.5493e-005, 5.7375e-006
  47.14300, 10.25696,-8.2038e-005, 6.7956e-006
  47.64300, 10.35563,-7.8801e-005, 6.9699e-006
  48.14300, 10.45403,-7.5030e-005, 6.4845e-006
  48.64300, 10.55218,-7.2400e-005, 5.4144e-006
  49.14300, 10.64980,-6.9076e-005, 7.6532e-006
  49.64300, 10.74712,-6.5295e-005, 5.9254e-006
  50.14300, 10.84420,-6.2713e-005, 6.5770e-006
  50.64300, 10.94085,-5.9427e-005, 6.9898e-006
  51.14300, 11.03728,-5.5740e-005, 6.6655e-006
  51.64300, 11.13324,-5.2160e-005, 7.2329e-006
  52.14300, 11.22868,-4.8289e-005, 7.1412e-006
  52.64300, 11.32416,-4.5238e-005, 7.1557e-006
  53.14300, 11.41944,-4.1477e-005, 7.8820e-006
  53.64300, 11.51448,-3.7613e-005, 7.3007e-006
  54.14300, 11.60930,-3.3202e-005, 8.3995e-006
  54.64300, 11.70380,-2.9818e-005, 7.6946e-006
  55.14300, 11.79811,-2.5315e-005, 7.3216e-006
  55.64300, 11.89245,-2.2405e-005, 7.4144e-006
  56.14300, 11.98669,-1.8172e-005, 8.0909e-006
  56.64300, 12.08076,-1.3861e-005, 8.7049e-006
  57.14300, 12.17461,-9.2068e-006, 8.2654e-006
  57.64300, 12.26838,-6.1439e-006, 7.8027e-006
  58.14300, 12.36190,-1.2690e-006, 9.0199e-006
  58.64300, 12.45521, 2.9034e-006, 8.9779e-006
  59.14300, 12.54845, 6.8517e-006, 8.4675e-006
  59.64300, 12.64155, 1.1928e-005, 9.2805e-006
  60.14300, 12.73468, 1.6230e-005, 8.9723e-006
  60.64300, 12.82750, 2.1204e-005, 8.8396e-006
  61.14300, 12.92027, 2.5462e-005, 1.0090e-005
  61.64300, 13.01289, 3.0676e-005, 8.8299e-006
  62.14300, 13.10577, 3.3975e-005, 9.5569e-006
  62.64300, 13.19857, 3.9981e-005, 1.0112e-005
  63.14300, 13.29132, 4.4653e-005, 1.0547e-005
  63.64300, 13.38404, 5.0251e-005, 1.0408e-005
  64.14300, 13.47684, 5.5662e-005, 1.0579e-005
  64.64300, 13.57015, 6.0430e-005, 1.0436e-005
  65.14300, 13.66335, 6.6225e-005, 1.0565e-005
  65.64300, 13.75662, 7.0940e-005, 9.9716e-006
  66.14300, 13.84971, 7.5874e-005, 1.1313e-005
  66.64300, 13.94318, 8.2049e-005, 1.0901e-005
  67.14300, 14.03687, 8.7012e-005, 1.1148e-005
  67.64300, 14.13050, 9.3412e-005, 1.1476e-005
  68.14300, 14.22393, 9.9160e-005, 1.1854e-005
  68.64300, 14.31720, 1.0511e-004, 1.1216e-005
  69.14300, 14.41061, 1.1039e-004, 1.1634e-005
  69.64300, 14.50433, 1.1619e-004, 1.2191e-005
  70.14300, 14.59829, 1.2245e-004, 1.1909e-005
  70.64300, 14.69195, 1.2859e-004, 1.0671e-005
  71.14300, 14.78588, 1.3352e-004, 1.1310e-005
  71.64300, 14.87991, 1.3987e-004, 1.2580e-005
  72.14300, 14.97429, 1.4591e-004, 1.2536e-005
  72.64300, 15.06870, 1.5219e-004, 1.2857e-005
  73.14300, 15.16333, 1.5813e-004, 1.2414e-005
  73.64300, 15.25812, 1.6465e-004, 1.2401e-005
  74.14300, 15.35323, 1.7156e-004, 1.3330e-005
  74.64300, 15.44827, 1.7776e-004, 1.2522e-005
  75.14300, 15.54348, 1.8384e-004, 1.2207e-005
  75.64300, 15.63846, 1.8990e-004, 1.3042e-005
  76.14300, 15.73323, 1.9677e-004, 1.3491e-005
  76.64300, 15.82811, 2.0370e-004, 1.3255e-005
  77.14300, 15.92302, 2.1021e-004, 1.3124e-005
  77.64300, 16.01831, 2.1694e-004, 1.2926e-005
  78.14300, 16.11358, 2.2286e-004, 1.2234e-005
  78.64300, 16.20881, 2.2932e-004, 1.3356e-005
  79.14300, 16.30405, 2.3578e-004, 1.2080e-005
  79.64300, 16.39993, 2.4141e-004, 1.2610e-005
  80.14300, 16.49597, 2.4828e-004, 1.4176e-005
  80.64300, 16.59202, 2.5546e-004, 1.3686e-005
  81.14300, 16.68776, 2.6243e-004, 1.3419e-005
  81.64300, 16.78357, 2.6859e-004, 1.3475e-005
  82.14300, 16.87971, 2.7537e-004, 1.2967e-005
  82.64300, 16.97613, 2.8244e-004, 1.3926e-005
  83.14300, 17.07258, 2.8908e-004, 1.3827e-005
  83.64300, 17.16908, 2.9634e-004, 1.4244e-005
  84.14300, 17.26591, 3.0337e-004, 1.3902e-005
  84.64300, 17.36282, 3.0997e-004, 1.3001e-005
  85.14300, 17.45981, 3.1660e-004, 1.3700e-005
  85.64300, 17.55692, 3.2359e-004, 1.3988e-005
  86.14300, 17.65406, 3.3070e-004, 1.4091e-005
  86.64300, 17.75134, 3.3733e-004, 1.3839e-005
  87.14300, 17.84880, 3.4453e-004, 1.3385e-005
  87.64300, 17.94638, 3.5103e-004, 1.3405e-005
  88.14300, 18.04398, 3.5817e-004, 1.4107e-005
  88.64300, 18.14174, 3.6530e-004, 1.3625e-005
  89.14300, 18.23943, 3.7165e-004, 1.3956e-005
  89.64300, 18.33715, 3.7921e-004, 1.4403e-005
  90.14300, 18.43501, 3.8600e-004, 1.4041e-005
  90.64300, 18.53286, 3.9309e-004, 1.4237e-005
  91.14300, 18.63062, 4.0038e-004, 1.3563e-005
  91.64300, 18.72860, 4.0715e-004, 1.4106e-005
  92.14300, 18.82670, 4.1400e-004, 1.4149e-005
  92.64300, 18.92495, 4.2116e-004, 1.4393e-005
  93.14300, 19.02320, 4.2845e-004, 1.4802e-005
  93.64300, 19.12163, 4.3534e-004, 1.3650e-005
  94.14300, 19.22015, 4.4211e-004, 1.4446e-005
  94.64300, 19.31881, 4.4943e-004, 1.3967e-005
  95.14300, 19.41759, 4.5711e-004, 1.5039e-005
  95.64300, 19.51615, 4.6438e-004, 1.4133e-005
  96.14300, 19.61491, 4.7126e-004, 1.4599e-005
  96.64300, 19.71397, 4.7829e-004, 1.3486e-005
  97.14300, 19.81312, 4.8544e-004, 1.4747e-005
  97.64300, 19.91233, 4.9310e-004, 1.4214e-005
  98.14300, 20.01190, 4.9930e-004, 1.3375e-005
  98.64300, 20.11148, 5.0643e-004, 1.4270e-005
  99.14300, 20.21158, 5.1407e-004, 1.4860e-005
  99.64300, 20.31186, 5.2116e-004, 1.5041e-005
 100.14300, 20.41210, 5.2890e-004, 1.4455e-005
 100.64300, 20.51248, 5.3604e-004, 1.4742e-005
 101.14300, 20.61298, 5.4319e-004, 1.4788e-005
 101.64300, 20.71342, 5.5072e-004, 1.5202e-005
 102.14300, 20.81384, 5.5843e-004, 1.4445e-005
 102.64300, 20.91410, 5.6542e-004, 1.3766e-005
 103.14300, 21.01446, 5.7196e-004, 1.4238e-005
 103.64300, 21.11490, 5.8002e-004, 1.4994e-005
 104.14300, 21.21542, 5.8649e-004, 1.3853e-005
 104.64300, 21.31610, 5.9383e-004, 1.4883e-005
 105.14300, 21.41686, 6.0113e-004, 1.5309e-005
 105.64300, 21.51782, 6.0916e-004, 1.4377e-005
 106.14300, 21.61878, 6.1608e-004, 1.4746e-005
 106.64300, 21.71940, 6.2241e-004, 1.2878e-005
 107.14300, 21.82039, 6.3001e-004, 1.4904e-005
 107.64300, 21.92121, 6.3759e-004, 1.4743e-005
 108.14300, 22.02220, 6.4512e-004, 1.5269e-005
 108.64300, 22.12333, 6.5225e-004, 1.5038e-005
 109.14300, 22.22456, 6.5999e-004, 1.4595e-005
 109.64300, 22.32617, 6.6726e-004, 1.5325e-005
 110.14300, 22.42800, 6.7483e-004, 1.4924e-005
 110.64300, 22.52988, 6.8209e-004, 1.4903e-005
 111.14300, 22.63193, 6.9003e-004, 1.5502e-005
 111.64300, 22.73398, 6.9760e-004, 1.4833e-005
 112.14300, 22.83608, 7.0486e-004, 1.4235e-005
 112.64300, 22.93816, 7.1219e-004, 1.4550e-005
 113.14300, 23.04039, 7.1923e-004, 1.4905e-005
 113.64300, 23.14285, 7.2687e-004, 1.4596e-005
 114.14300, 23.24530, 7.3436e-004, 1.4538e-005
 114.64300, 23.34784, 7.4143e-004, 1.5227e-005
 115.14300, 23.45045, 7.4927e-004, 1.4838e-005
 115.64300, 23.55309, 7.5664e-004, 1.5257e-005
 116.14300, 23.65604, 7.6408e-004, 1.5574e-005
 116.64300, 23.75885, 7.7246e-004, 1.5046e-005
 117.14300, 23.86175, 7.7928e-004, 1.5356e-005
 117.64300, 23.96479, 7.8721e-004, 1.4657e-005
 118.14300, 24.06807, 7.9422e-004, 1.4844e-005
 118.64300, 24.17145, 8.0186e-004, 1.4355e-005
 119.14300, 24.27480, 8.0895e-004, 1.4931e-005
 119.64300, 24.37804, 8.1656e-004, 1.5198e-005
 120.14300, 24.48137, 8.2382e-004, 1.4792e-005
 120.64300, 24.58467, 8.3122e-004, 1.4173e-005
 121.14300, 24.68806, 8.3886e-004, 1.4938e-005
 121.64300, 24.79144, 8.4611e-004, 1.4996e-005
 122.14300, 24.89491, 8.5404e-004, 1.5341e-005
 122.64300, 24.99833, 8.6104e-004, 1.5389e-005
 123.14300, 25.10183, 8.6860e-004, 1.4934e-005
 123.64300, 25.20552, 8.7651e-004, 1.5289e-005
 124.14300, 25.30929, 8.8408e-004, 1.5091e-005
 124.64300, 25.41318, 8.9159e-004, 1.3202e-005
 125.14300, 25.51706, 8.9780e-004, 1.4598e-005
 125.64300, 25.62099, 9.0538e-004, 1.5374e-005
 126.14300, 25.72514, 9.1305e-004, 1.5179e-005
 126.64300, 25.82929, 9.2074e-004, 1.5114e-005
 127.14300, 25.93338, 9.2847e-004, 1.5584e-005
 127.64300, 26.03760, 9.3617e-004, 1.5069e-005
 128.14300, 26.14184, 9.4363e-004, 1.3747e-005
 128.64300, 26.24608, 9.5042e-004, 1.4494e-005
 129.14300, 26.35033, 9.5763e-004, 1.5072e-005
 129.64300, 26.45503, 9.6552e-004, 1.5054e-005
 130.14300, 26.55972, 9.7300e-004, 1.5681e-005
 130.64300, 26.66442, 9.8084e-004, 1.5717e-005
 131.14300, 26.76919, 9.8848e-004, 1.5353e-005
 131.64300, 26.87383, 9.9627e-004, 1.5206e-005
 132.14300, 26.97855, 1.0042e-003, 1.4841e-005
 132.64300, 27.08331, 1.0105e-003, 1.3686e-005
 133.14300, 27.18799, 1.0177e-003, 1.5160e-005
 133.64300, 27.29296, 1.0254e-003, 1.5057e-005
 134.14300, 27.39793, 1.0336e-003, 1.6143e-005
 134.64300, 27.50309, 1.0415e-003, 1.5090e-005
 135.14300, 27.60835, 1.0489e-003, 1.5352e-005
 135.64300, 27.71378, 1.0564e-003, 1.5138e-005
 136.14300, 27.81937, 1.0642e-003, 1.5459e-005
 136.64300, 27.92479, 1.0720e-003, 1.5800e-005
 137.14300, 28.03008, 1.0800e-003, 1.5555e-005
 137.64300, 28.13552, 1.0872e-003, 1.5079e-005
 138.14300, 28.24098, 1.0950e-003, 1.5745e-005
 138.64300, 28.34658, 1.1026e-003, 1.4600e-005
 139.14300, 28.45201, 1.1097e-003, 1.4685e-005
 139.64300, 28.55762, 1.1174e-003, 1.5183e-005
 140.14300, 28.66348, 1.1255e-003, 1.5699e-005
 140.64300, 28.76936, 1.1327e-003, 1.5887e-005
 141.14300, 28.87506, 1.1409e-003, 1.5270e-005
 141.64300, 28.98075, 1.1487e-003, 1.5557e-005
 142.14300, 29.08664, 1.1564e-003, 1.5049e-005
 142.64300, 29.19273, 1.1635e-003, 1.5219e-005
 143.14300, 29.29887, 1.1714e-003, 1.5069e-005
 143.64300, 29.40502, 1.1786e-003, 1.5031e-005
 144.14300, 29.51130, 1.1867e-003, 1.5959e-005
 144.64300, 29.61792, 1.1947e-003, 1.5339e-005
 145.14300, 29.72466, 1.2016e-003, 1.4695e-005
 145.64300, 29.83122, 1.2096e-003, 1.5273e-005
 146.14300, 29.93748, 1.2172e-003, 1.6019e-005
 146.64300, 30.04386, 1.2250e-003, 1.5512e-005
 147.14300, 30.15055, 1.2326e-003, 1.5288e-005
 147.64300, 30.25750, 1.2401e-003, 1.5225e-005
 148.14300, 30.36463, 1.2481e-003, 1.4953e-005
 148.64300, 30.47197, 1.2556e-003, 1.3829e-005
 149.14300, 30.57966, 1.2621e-003, 1.5144e-005
 149.64300, 30.68737, 1.2701e-003, 1.5613e-005
 150.14300, 30.79509, 1.2779e-003, 1.6301e-005
 150.64300, 30.90293, 1.2856e-003, 1.4849e-005
 151.14300, 31.01075, 1.2936e-003, 1.4901e-005
 151.64300, 31.11849, 1.3013e-003, 1.6441e-005
 152.14300, 31.22606, 1.3087e-003, 1.5593e-005
 152.64300, 31.33367, 1.3167e-003, 1.5539e-005
 153.14300, 31.44130, 1.3247e-003, 1.5865e-005
 153.64300, 31.54885, 1.3326e-003, 1.5992e-005
 154.14300, 31.65621, 1.3405e-003, 1.5621e-005
 154.64300, 31.76348, 1.3485e-003, 1.5227e-005
 155.14300, 31.87093, 1.3556e-003, 1.5617e-005
 155.64300, 31.97858, 1.3634e-003, 1.4156e-005
 156.14300, 32.08656, 1.3700e-003, 1.4178e-005
 156.64300, 32.19452, 1.3780e-003, 1.5595e-005
 157.14300, 32.30267, 1.3858e-003, 1.6462e-005
 157.64300, 32.41081, 1.3937e-003, 1.4950e-005
 158.14300, 32.51902, 1.4017e-003, 1.5360e-005
 158.64300, 32.62716, 1.4091e-003, 1.5932e-005
 159.14300, 32.73533, 1.4170e-003, 1.5964e-005
 159.64300, 32.84315, 1.4252e-003, 1.5885e-005
 160.14300, 32.95102, 1.4326e-003, 1.4502e-005
 160.64300, 33.05911, 1.4392e-003, 1.4361e-005
 161.14300, 33.16722, 1.4470e-003, 1.5283e-005
 161.64300, 33.27533, 1.4548e-003, 1.5495e-005
 162.14300, 33.38338, 1.4631e-003, 1.6347e-005
 162.64300, 33.49156, 1.4705e-003, 1.5011e-005
 163.14300, 33.60004, 1.4782e-003, 1.5689e-005
 163.64300, 33.70869, 1.4864e-003, 1.5435e-005
 164.14300, 33.81719, 1.4938e-003, 1.5249e-005
 164.64300, 33.92590, 1.5013e-003, 1.3523e-005
 165.14300, 34.03488, 1.5085e-003, 1.6250e-005
 165.64300, 34.14399, 1.5164e-003, 1.5554e-005
 166.14300, 34.25306, 1.5241e-003, 1.5602e-005
 166.64300, 34.36191, 1.5319e-003, 1.6380e-005
 167.14300, 34.47073, 1.5401e-003, 1.5487e-005
 167.64300, 34.57948, 1.5479e-003, 1.5427e-005
 168.14300, 34.68824, 1.5555e-003, 1.5388e-005
 168.64300, 34.79673, 1.5635e-003, 1.5822e-005
 169.14300, 34.90532, 1.5707e-003, 1.5414e-005
 169.64300, 35.01411, 1.5790e-003, 1.6151e-005
 170.14300, 35.12307, 1.5869e-003, 1.5174e-005
 170.64300, 35.23218, 1.5945e-003, 1.4876e-005
 171.14300, 35.34140, 1.6014e-003, 1.4166e-005
 171.64300, 35.45077, 1.6091e-003, 1.5703e-005
 172.14300, 35.56044, 1.6172e-003, 1.5673e-005
 172.64300, 35.67024, 1.6248e-003, 1.5796e-005
 173.14300, 35.77983, 1.6324e-003, 1.5330e-005
 173.64300, 35.88943, 1.6401e-003, 1.5996e-005
 174.14300, 35.99931, 1.6484e-003, 1.5330e-005
 174.64300, 36.10914, 1.6564e-003, 1.5705e-005
 175.14300, 36.21908, 1.6637e-003, 1.5015e-005
 175.64300, 36.32906, 1.6711e-003, 1.5562e-005
 176.14300, 36.43916, 1.6797e-003, 1.6250e-005
 176.64300, 36.54959, 1.6873e-003, 1.5914e-005
 177.14300, 36.65979, 1.6954e-003, 1.5796e-005
 177.64300, 36.77019, 1.7032e-003, 1.5809e-005
 178.14300, 36.88063, 1.7115e-003, 1.5893e-005
 178.64300, 36.99135, 1.7194e-003, 1.6310e-005
 179.14300, 37.10221, 1.7270e-003, 1.5799e-005
 179.64300, 37.21316, 1.7349e-003, 1.2884e-005
 180.14300, 37.32428, 1.7410e-003, 1.5318e-005
 180.64300, 37.43554, 1.7491e-003, 1.5612e-005
 181.14300, 37.54688, 1.7573e-003, 1.6091e-005
 181.64300, 37.65828, 1.7651e-003, 1.5775e-005
 182.14300, 37.76944, 1.7727e-003, 1.5818e-005
 182.64300, 37.88061, 1.7807e-003, 1.5159e-005
 183.14300, 37.99183, 1.7885e-003, 1.5904e-005
 183.64300, 38.10304, 1.7960e-003, 1.6003e-005
 184.14300, 38.21423, 1.8042e-003, 1.5960e-005
 184.64300, 38.32543, 1.8121e-003, 1.5021e-005
 185.14300, 38.43666, 1.8197e-003, 1.5920e-005
 185.64300, 38.54777, 1.8280e-003, 1.6090e-005
 186.14300, 38.65911, 1.8359e-003, 1.5120e-005
 186.64300, 38.77057, 1.8435e-003, 1.5734e-005
 187.14300, 38.88222, 1.8510e-003, 1.5244e-005
 187.64300, 38.99382, 1.8593e-003, 1.5509e-005
 188.14300, 39.10551, 1.8659e-003, 1.4625e-005
 188.64300, 39.21746, 1.8738e-003, 1.5269e-005
 189.14300, 39.32942, 1.8817e-003, 1.5831e-005
 189.64300, 39.44116, 1.8891e-003, 1.5223e-005
 190.14300, 39.55295, 1.8968e-003, 1.5990e-005
 190.64300, 39.66503, 1.9048e-003, 1.5475e-005
 191.14300, 39.77697, 1.9127e-003, 1.5643e-005
 191.64300, 39.88890, 1.9209e-003, 1.6459e-005
 192.14300, 40.00079, 1.9287e-003, 1.5391e-005
 192.64300, 40.11279, 1.9366e-003, 1.5971e-005
 193.14300, 40.22474, 1.9441e-003, 1.5253e-005
 193.64300, 40.33654, 1.9522e-003, 1.5703e-005
 194.14300, 40.44856, 1.9603e-003, 1.5860e-005
 194.64300, 40.56071, 1.9676e-003, 1.5215e-005
 195.14300, 40.67296, 1.9756e-003, 1.4838e-005
 195.64300, 40.78548, 1.9819e-003, 1.4058e-005
 196.14300, 40.89811, 1.9896e-003, 1.5449e-005
 196.64300, 41.01087, 1.9976e-003, 1.5681e-005
 197.14300, 41.12356, 2.0053e-003, 1.5783e-005
 197.64300, 41.23624, 2.0128e-003, 1.5906e-005
 198.14300, 41.34914, 2.0216e-003, 1.6075e-005
 198.64300, 41.46219, 2.0291e-003, 1.5223e-005
 199.14300, 41.57527, 2.0370e-003, 1.6171e-005
 199.64300, 41.68833, 2.0446e-003, 1.5632e-005
 200.14300, 41.80160, 2.0523e-003, 1.5461e-005
 200.64300, 41.91516, 2.0602e-003, 1.5815e-005
 201.14300, 42.02871, 2.0684e-003, 1.4437e-005
 201.64300, 42.14230, 2.0753e-003, 1.5122e-005
 202.14300, 42.25590, 2.0831e-003, 1.5882e-005
 202.64300, 42.36963, 2.0912e-003, 1.5953e-005
 203.14300, 42.48353, 2.0990e-003, 1.5570e-005
 203.64300, 42.59737, 2.1070e-003, 1.5825e-005
 204.14300, 42.71117, 2.1148e-003, 1.5298e-005
 204.64300, 42.82516, 2.1228e-003, 1.5492e-005
 205.14300, 42.93910, 2.1307e-003, 1.6098e-005
 205.64300, 43.05309, 2.1384e-003, 1.5964e-005
 206.14300, 43.16696, 2.1465e-003, 1.5900e-005
 206.64300, 43.28105, 2.1547e-003, 1.5271e-005
 207.14300, 43.39519, 2.1621e-003, 1.4591e-005
 207.64300, 43.50959, 2.1695e-003, 1.4757e-005
 208.14300, 43.62402, 2.1769e-003, 1.5720e-005
 208.64300, 43.73846, 2.1848e-003, 1.5856e-005
 209.14300, 43.85298, 2.1922e-003, 1.5187e-005
 209.64300, 43.96744, 2.1997e-003, 1.5792e-005
 210.14300, 44.08186, 2.2082e-003, 1.6117e-005
 210.64300, 44.19609, 2.2159e-003, 1.6197e-005
 211.14300, 44.31035, 2.2240e-003, 1.5737e-005
 211.64300, 44.42475, 2.2321e-003, 1.5447e-005
 212.14300, 44.53933, 2.2392e-003, 1.4829e-005
 212.64300, 44.65408, 2.2468e-003, 1.5887e-005
 213.14300, 44.76918, 2.2547e-003, 1.5448e-005
 213.64300, 44.88463, 2.2632e-003, 1.5581e-005
 214.14300, 44.99998, 2.2704e-003, 1.5989e-005
 214.64300, 45.11527, 2.2783e-003, 1.5502e-005
 215.14300, 45.23076, 2.2861e-003, 1.5818e-005
 215.64300, 45.34628, 2.2940e-003, 1.5949e-005
 216.14300, 45.46147, 2.3017e-003, 1.6036e-005
 216.64300, 45.57680, 2.3095e-003, 1.4852e-005
 217.14300, 45.69226, 2.3172e-003, 1.5184e-005
 217.64300, 45.80764, 2.3252e-003, 1.5249e-005
 218.14300, 45.92341, 2.3325e-003, 1.5261e-005
 218.64300, 46.03934, 2.3400e-003, 1.5195e-005
 219.14300, 46.15538, 2.3479e-003, 1.6229e-005
 219.64300, 46.27132, 2.3554e-003, 1.5256e-005
 220.14300, 46.38742, 2.3638e-003, 1.6495e-005
 220.64300, 46.50380, 2.3714e-003, 1.4904e-005
 221.14300, 46.62004, 2.3792e-003, 1.6173e-005
 221.64300, 46.73612, 2.3870e-003, 1.4018e-005
 222.14300, 46.85233, 2.3940e-003, 1.4912e-005
 222.64300, 46.96868, 2.4011e-003, 1.5331e-005
 223.14300, 47.08489, 2.4096e-003, 1.5849e-005
 223.64300, 47.20126, 2.4174e-003, 1.6104e-005
 224.14300, 47.31762, 2.4254e-003, 1.5411e-005
 224.64300, 47.43426, 2.4330e-003, 1.5706e-005
 225.14300, 47.55095, 2.4407e-003, 1.5220e-005
 225.64300, 47.66760, 2.4485e-003, 1.6013e-005
 226.14300, 47.78463, 2.4559e-003, 1.4607e-005
 226.64300, 47.90168, 2.4637e-003, 1.5454e-005
 227.14300, 48.01886, 2.4711e-003, 1.5209e-005
 227.64300, 48.13597, 2.4792e-003, 1.6173e-005
 228.14300, 48.25335, 2.4871e-003, 1.5327e-005
 228.64300, 48.37081, 2.4947e-003, 1.5716e-005
 229.14300, 48.48834, 2.5026e-003, 1.5879e-005
 229.64300, 48.60604, 2.5105e-003, 1.5630e-005
 230.14300, 48.72371, 2.5182e-003, 1.5537e-005
 230.64300, 48.84167, 2.5261e-003, 1.5451e-005
 231.14300, 48.95946, 2.5337e-003, 1.5484e-005
 231.64300, 49.07731, 2.5416e-003, 1.6094e-005
 232.14300, 49.19531, 2.5493e-003, 1.5464e-005
 232.64300, 49.31330, 2.5567e-003, 1.5762e-005
 233.14300, 49.43120, 2.5654e-003, 1.5848e-005
 233.64300, 49.54897, 2.5731e-003, 1.5997e-005
 234.14300, 49.66713, 2.5808e-003, 1.4864e-005
 234.64300, 49.78545, 2.5884e-003, 1.5873e-005
 235.14300, 49.90379, 2.5960e-003, 1.5784e-005
 235.64300, 50.02226, 2.6042e-003, 1.5621e-005
 236.14300, 50.14115, 2.6119e-003, 1.5321e-005
 236.64300, 50.25996, 2.6194e-003, 1.4843e-005
 237.14300, 50.37871, 2.6272e-003, 1.6572e-005
 237.64300, 50.49743, 2.6347e-003, 1.5293e-005
 238.14300, 50.61632, 2.6433e-003, 1.5580e-005
 238.64300, 50.73503, 2.6507e-003, 1.5679e-005
 239.14300, 50.85383, 2.6584e-003, 1.6296e-005
 239.64300, 50.97287, 2.6663e-003, 1.5844e-005
 240.14300, 51.09190, 2.6743e-003, 1.5268e-005
 240.64300, 51.21116, 2.6820e-003, 1.5912e-005
 241.14300, 51.33028, 2.6887e-003, 1.3283e-005
 241.64300, 51.44964, 2.6967e-003, 1.5409e-005
 242.14300, 51.56889, 2.7046e-003, 1.5847e-005
 242.64300, 51.68834, 2.7121e-003, 1.5215e-005
 243.14300, 51.80786, 2.7199e-003, 1.5444e-005
 243.64300, 51.92723, 2.7275e-003, 1.5661e-005
 244.14300, 52.04681, 2.7356e-003, 1.5790e-005
 244.64300, 52.16649, 2.7433e-003, 1.5679e-005
 245.14300, 52.28625, 2.7514e-003, 1.5855e-005
 245.64300, 52.40599, 2.7593e-003, 1.5509e-005
 246.14300, 52.52579, 2.7670e-003, 1.5925e-005
 246.64300, 52.64556, 2.7752e-003, 1.5403e-005
 247.14300, 52.76545, 2.7824e-003, 1.5772e-005
 247.64300, 52.88542, 2.7905e-003, 1.5291e-005
 248.14300, 53.00544, 2.7980e-003, 1.5144e-005
 248.64300, 53.12585, 2.8055e-003, 1.5963e-005
 249.14300, 53.24620, 2.8133e-003, 1.5118e-005
 249.64300, 53.36674, 2.8210e-003, 1.5760e-005
 250.14300, 53.48738, 2.8295e-003, 1.6185e-005
 250.64300, 53.60782, 2.8372e-003, 1.5568e-005
 251.14300, 53.72831, 2.8447e-003, 1.6029e-005
 251.64300, 53.84852, 2.8528e-003, 1.3667e-005
 252.14300, 53.96907, 2.8594e-003, 1.5556e-005
 252.64300, 54.08966, 2.8676e-003, 1.5076e-005
 253.14300, 54.21023, 2.8751e-003, 1.5845e-005
 253.64300, 54.33100, 2.8831e-003, 1.5721e-005
 254.14300, 54.45187, 2.8909e-003, 1.5628e-005
 254.64300, 54.57305, 2.8990e-003, 1.5894e-005
 255.14300, 54.69427, 2.9068e-003, 1.6124e-005
 255.64300, 54.81556, 2.9146e-003, 1.5899e-005
 256.14300, 54.93713, 2.9226e-003, 1.5313e-005
 256.64300, 55.05884, 2.9300e-003, 1.5218e-005
 257.14300, 55.18080, 2.9378e-003, 1.5487e-005
 257.64300, 55.30261, 2.9455e-003, 1.5138e-005
 258.14300, 55.42447, 2.9532e-003, 1.4637e-005
 258.64300, 55.54673, 2.9604e-003, 1.5123e-005
 259.14300, 55.66917, 2.9680e-003, 1.6270e-005
 259.64300, 55.79163, 2.9765e-003, 1.5941e-005
 260.14300, 55.91422, 2.9840e-003, 1.5295e-005
 260.64300, 56.03701, 2.9915e-003, 1.4788e-005
 261.14300, 56.15979, 2.9994e-003, 1.6282e-005
 261.64300, 56.28239, 3.0075e-003, 1.5277e-005
 262.14300, 56.40469, 3.0155e-003, 1.5270e-005
 262.64300, 56.52694, 3.0225e-003, 1.6111e-005
 263.14300, 56.64930, 3.0306e-003, 1.3895e-005
 263.64300, 56.77169, 3.0376e-003, 1.5597e-005
 264.14300, 56.89412, 3.0457e-003, 1.6064e-005
 264.64300, 57.01667, 3.0536e-003, 1.5242e-005
 265.14300, 57.13965, 3.0610e-003, 1.5568e-005
 265.64300, 57.26285, 3.0686e-003, 1.5675e-005
 266.14300, 57.38606, 3.0766e-003, 1.4992e-005
 266.64300, 57.50909, 3.0842e-003, 1.5874e-005
 267.14300, 57.63190, 3.0920e-003, 1.5557e-005
 267.64300, 57.75486, 3.1003e-003, 1.5711e-005
 268.14300, 57.87774, 3.1076e-003, 1.6121e-005
 268.64300, 58.00054, 3.1153e-003, 1.4732e-005
 269.14300, 58.12330, 3.1235e-003, 1.5932e-005
 269.64300, 58.24657, 3.1308e-003, 1.5771e-005
 270.14300, 58.37010, 3.1392e-003, 1.5550e-005
 270.64300, 58.49370, 3.1471e-003, 1.5555e-005
 271.14300, 58.61738, 3.1547e-003, 1.5873e-005
 271.64300, 58.74144, 3.1621e-003, 1.5203e-005
 272.14300, 58.86569, 3.1704e-003, 1.5753e-005
 272.64300, 58.98999, 3.1779e-003, 1.6111e-005
 273.14300, 59.11445, 3.1858e-003, 1.5343e-005
 273.64300, 59.23883, 3.1934e-003, 1.5759e-005
 274.14300, 59.36342, 3.2013e-003, 1.5493e-005
 274.64300, 59.48781, 3.2092e-003, 1.5448e-005
 275.14300, 59.61197, 3.2171e-003, 1.5861e-005
 275.64300, 59.73611, 3.2249e-003, 1.4661e-005
 276.14300, 59.86030, 3.2317e-003, 1.4853e-005
 276.64300, 59.98458, 3.2392e-003, 1.4760e-005
 277.14300, 60.10894, 3.2469e-003, 1.5666e-005
 277.64300, 60.23325, 3.2547e-003, 1.5733e-005
 278.14300, 60.35799, 3.2623e-003, 1.5173e-005
 278.64300, 60.48289, 3.2708e-003, 1.6102e-005
 279.14300, 60.60785, 3.2781e-003, 1.4726e-005
 279.64300, 60.73308, 3.2861e-003, 1.5720e-005
 280.14300, 60.85835, 3.2939e-003, 1.5770e-005
 280.64300, 60.98398, 3.3017e-003, 1.5892e-005
 281.14300, 61.10956, 3.3090e-003, 1.4531e-005
 281.64300, 61.23520, 3.3168e-003, 1.3763e-005
 282.14300, 61.36095, 3.3233e-003, 1.5591e-005
 282.64300, 61.48666, 3.3315e-003, 1.5102e-005
 283.14300, 61.61239, 3.3390e-003, 1.5806e-005
 283.64300, 61.73812, 3.3467e-003, 1.5717e-005
 284.14300, 61.86418, 3.3544e-003, 1.5122e-005
 284.64300, 61.99014, 3.3622e-003, 1.6467e-005
 285.14300, 62.11625, 3.3703e-003, 1.5726e-005
 285.64300, 62.24249, 3.3781e-003, 1.5684e-005
 286.14300, 62.36896, 3.3861e-003, 1.5230e-005
 286.64300, 62.49552, 3.3932e-003, 1.4318e-005
 287.14300, 62.62191, 3.4010e-003, 1.5665e-005
 287.64300, 62.74855, 3.4089e-003, 1.6222e-005
 288.14300, 62.87537, 3.4171e-003, 1.5501e-005
 288.64300, 63.00219, 3.4250e-003, 1.5122e-005
 289.14300, 63.12878, 3.4318e-003, 1.4263e-005
 289.64300, 63.25566, 3.4397e-003, 1.5802e-005
 290.14300, 63.38254, 3.4478e-003, 1.5548e-005
 290.64300, 63.50917, 3.4553e-003, 1.5140e-005
 291.14300, 63.63607, 3.4627e-003, 1.6089e-005
 291.64300, 63.76320, 3.4708e-003, 1.5499e-005
 292.14300, 63.89048, 3.4786e-003, 1.5280e-005
 292.64300, 64.01791, 3.4857e-003, 1.5525e-005
 293.14300, 64.14560, 3.4936e-003, 1.5161e-005
 293.64300, 64.27344, 3.5016e-003, 1.5322e-005
 294.14300, 64.40128, 3.5091e-003, 1.5317e-005
 294.64300, 64.52918, 3.5169e-003, 1.6066e-005
 295.14300, 64.65706, 3.5248e-003, 1.5516e-005
 295.64300, 64.78498, 3.5322e-003, 1.5399e-005
 296.14300, 64.91297, 3.5404e-003, 1.5676e-005
 296.64300, 65.04078, 3.5480e-003, 1.5649e-005
 297.14300, 65.16880, 3.5556e-003, 1.5072e-005
 297.64300, 65.29691, 3.5636e-003, 1.6086e-005
 298.14300, 65.42496, 3.5711e-003, 1.5326e-005
 298.64300, 65.55314, 3.5786e-003, 1.5043e-005
 299.14300, 65.68158, 3.5864e-003, 1.5271e-005
 299.64300, 65.80978, 3.5936e-003, 1.3673e-005
 300.14300, 65.93792, 3.6014e-003, 1.6730e-005
 300.64300, 66.06620, 3.6090e-003, 1.4999e-005
 301.14300, 66.19472, 3.6165e-003, 1.4809e-005
 301.64300, 66.32323, 3.6241e-003, 1.5354e-005
 302.14300, 66.45187, 3.6312e-003, 1.5828e-005
 302.64300, 66.58092, 3.6397e-003, 1.4833e-005
 303.14300, 66.70990, 3.6478e-003, 1.5750e-005
 303.64300, 66.83914, 3.6552e-003, 1.5493e-005
 304.14300, 66.96836, 3.6630e-003, 1.5174e-005
 304.64300, 67.09763, 3.6701e-003, 1.5733e-005
 305.14300, 67.22695, 3.6787e-003, 1.5485e-005
 305.64300, 67.35635, 3.6860e-003, 1.6023e-005
 306.14300, 67.48578, 3.6939e-003, 1.5345e-005
 306.64300, 67.61549, 3.7018e-003, 1.4983e-005
 307.14300, 67.74565, 3.7091e-003, 1.5426e-005
 307.64300, 67.87566, 3.7165e-003, 1.4346e-005
 308.14300, 68.00536, 3.7240e-003, 1.4540e-005
 308.64300, 68.13549, 3.7316e-003, 1.6390e-005
 309.14300, 68.26596, 3.7397e-003, 1.5466e-005
 309.64300, 68.39622, 3.7473e-003, 1.5317e-005
 310.14300, 68.52641, 3.7549e-003, 1.6261e-005
 310.64300, 68.65683, 3.7630e-003, 1.4859e-005
 311.14300, 68.78750, 3.7706e-003, 1.5740e-005
 311.64300, 68.91777, 3.7783e-003, 1.5063e-005
 312.14300, 69.04822, 3.7862e-003, 1.5026e-005
 312.64300, 69.17872, 3.7931e-003, 1.5515e-005
 313.14300, 69.30984, 3.8015e-003, 1.5859e-005
 313.64300, 69.44102, 3.8089e-003, 1.4599e-005
 314.14300, 69.57206, 3.8167e-003, 1.6196e-005
 314.64300, 69.70331, 3.8244e-003, 1.4699e-005
 315.14300, 69.83451, 3.8320e-003, 1.5532e-005
 315.64300, 69.96568, 3.8396e-003, 1.5180e-005
 316.14300, 70.09685, 3.8471e-003, 1.5284e-005
 316.64300, 70.22815, 3.8556e-003, 1.6036e-005
 317.14300, 70.35944, 3.8630e-003, 1.4589e-005
 317.64300, 70.49079, 3.8703e-003, 1.4620e-005
 318.14300, 70.62221, 3.8777e-003, 1.5003e-005
 318.64300, 70.75355, 3.8855e-003, 1.5411e-005
 319.14300, 70.88494, 3.8936e-003, 1.6020e-005
 319.64300, 71.01681, 3.9011e-003, 1.4787e-005
 320.14300, 71.14884, 3.9084e-003, 1.5185e-005
 320.64300, 71.28092, 3.9162e-003, 1.5364e-005
 321.14300, 71.41321, 3.9243e-003, 1.5568e-005
 321.64300, 71.54585, 3.9317e-003, 1.5111e-005
 322.14300, 71.67864, 3.9396e-003, 1.5257e-005
 322.64300, 71.81107, 3.9471e-003, 1.5664e-005
 323.14300, 71.94327, 3.9545e-003, 1.5599e-005
 323.64300, 72.07558, 3.9627e-003, 1.5699e-005
 324.14300, 72.20813, 3.9706e-003, 1.5092e-005
 324.64300, 72.34087, 3.9781e-003, 1.5425e-005
 325.14300, 72.47397, 3.9859e-003, 1.4772e-005
 325.64300, 72.60729, 3.9928e-003, 1.4738e-005
 326.14300, 72.74066, 4.0009e-003, 1.5134e-005
 326.64300, 72.87425, 4.0081e-003, 1.5015e-005
 327.14300, 73.00772, 4.0157e-003, 1.5144e-005
 327.64300, 73.14103, 4.0232e-003, 1.4718e-005
 328.14300, 73.27479, 4.0309e-003, 1.5514e-005
 328.64300, 73.40865, 4.0384e-003, 1.4830e-005
 329.14300, 73.54253, 4.0456e-003, 1.5843e-005
 329.64300, 73.67635, 4.0536e-003, 1.4809e-005
 330.14300, 73.81014, 4.0608e-003, 1.4885e-005
 330.64300, 73.94375, 4.0686e-003, 1.5063e-005
 331.14300, 74.07771, 4.0767e-003, 1.5012e-005
 331.64300, 74.21202, 4.0843e-003, 1.5636e-005
 332.14300, 74.34640, 4.0920e-003, 1.4775e-005
 332.64300, 74.48066, 4.0990e-003, 1.5983e-005
 333.14300, 74.61512, 4.1071e-003, 1.5118e-005
 333.64300, 74.74910, 4.1151e-003, 1.5184e-005
 334.14300, 74.88285, 4.1229e-003, 1.5498e-005
 334.64300, 75.01630, 4.1302e-003, 1.5491e-005
 335.14300, 75.14983, 4.1375e-003, 1.4949e-005
 335.64300, 75.28348, 4.1450e-003, 1.5665e-005
 336.14300, 75.41754, 4.1532e-003, 1.4879e-005
 336.64300, 75.55205, 4.1607e-003, 1.5882e-005
 337.14300, 75.68648, 4.1681e-003, 1.4482e-005
 337.64300, 75.82156, 4.1757e-003, 1.5224e-005
 338.14300, 75.95674, 4.1833e-003, 1.5196e-005
 338.64300, 76.09177, 4.1907e-003, 1.5687e-005
 339.14300, 76.22691, 4.1989e-003, 1.5004e-005
 339.64300, 76.36245, 4.2068e-003, 1.5467e-005
 340.14300, 76.49778, 4.2138e-003, 1.4234e-005
 340.64300, 76.63281, 4.2210e-003, 1.3911e-005
 341.14300, 76.76806, 4.2288e-003, 1.5055e-005
 341.64300, 76.90306, 4.2363e-003, 1.4277e-005
 342.14300, 77.03826, 4.2435e-003, 1.4962e-005
 342.64300, 77.17339, 4.2511e-003, 1.5995e-005
 343.14300, 77.30867, 4.2592e-003, 1.4725e-005
 343.64300, 77.44417, 4.2669e-003, 1.4742e-005
 344.14300, 77.57998, 4.2746e-003, 1.5931e-005
 344.64300, 77.71603, 4.2822e-003, 1.4575e-005
 345.14300, 77.85187, 4.2896e-003, 1.5549e-005
 345.64300, 77.98815, 4.2975e-003, 1.5863e-005
 346.14300, 78.12451, 4.3051e-003, 1.5373e-005
 346.64300, 78.26097, 4.3128e-003, 1.5207e-005
 347.14300, 78.39719, 4.3204e-003, 1.4619e-005
 347.64300, 78.53383, 4.3280e-003, 1.5748e-005
 348.14300, 78.67033, 4.3360e-003, 1.5665e-005
 348.64300, 78.80703, 4.3431e-003, 1.5433e-005
 349.14300, 78.94406, 4.3509e-003, 1.5014e-005
 349.64300, 79.08088, 4.3583e-003, 1.5282e-005
 350.14300, 79.21777, 4.3660e-003, 1.5993e-005
 350.64300, 79.35538, 4.3743e-003, 1.6012e-005
 351.14300, 79.49299, 4.3820e-003, 1.5402e-005
 351.64300, 79.63032, 4.3896e-003, 1.5839e-005
 352.14300, 79.76769, 4.3977e-003, 1.6244e-005
 352.64300, 79.90522, 4.4055e-003, 1.6541e-005
 353.14300, 80.04274, 4.4136e-003, 1.6208e-005
 353.64300, 80.18022, 4.4216e-003, 1.6133e-005
 354.14300, 80.31807, 4.4299e-003, 1.6728e-005
 354.64300, 80.45641, 4.4381e-003, 1.6447e-005
 355.14300, 80.59515, 4.4464e-003, 1.6091e-005
 355.64300, 80.73418, 4.4550e-003, 1.6598e-005
 356.14300, 80.87357, 4.4621e-003, 1.5767e-005
 356.64300, 81.01315, 4.4709e-003, 1.7003e-005
 357.14300, 81.15332, 4.4793e-003, 1.6779e-005
 357.64300, 81.29381, 4.4874e-003, 1.6752e-005
 358.14300, 81.43455, 4.4955e-003, 1.6683e-005
 358.64300, 81.57551, 4.5037e-003, 1.6285e-005
 359.14300, 81.71664, 4.5127e-003, 1.6287e-005
 359.64300, 81.85754, 4.5200e-003, 1.6137e-005
 360.14300, 81.99833, 4.5283e-003, 1.6918e-005
 360.64300, 82.13886, 4.5360e-003, 1.5442e-005
 361.14300, 82.27949, 4.5438e-003, 1.6109e-005
 361.64300, 82.41965, 4.5519e-003, 1.4918e-005
 362.14300, 82.55965, 4.5597e-003, 1.6221e-005
 362.64300, 82.69950, 4.5676e-003, 1.4953e-005
 363.14300, 82.83914, 4.5748e-003, 1.4571e-005
 363.64300, 82.97820, 4.5824e-003, 1.5013e-005
 364.14300, 83.11724, 4.5895e-003, 1.3939e-005
 364.64300, 83.25592, 4.5970e-003, 1.5370e-005
 365.14300, 83.39405, 4.6039e-003, 1.3508e-005
 365.64300, 83.53165, 4.6107e-003, 1.3620e-005
 366.14300, 83.66906, 4.6178e-003, 1.4295e-005
 366.64300, 83.80599, 4.6249e-003, 1.3250e-005
 367.14300, 83.94246, 4.6314e-003, 1.4272e-005
 367.64300, 84.07851, 4.6387e-003, 1.3168e-005
 368.14300, 84.21411, 4.6456e-003, 1.3847e-005
 368.64300, 84.34915, 4.6522e-003, 1.3332e-005
 369.14300, 84.48350, 4.6587e-003, 1.3607e-005
 369.64300, 84.61751, 4.6652e-003, 1.3855e-005
 370.14300, 84.75124, 4.6723e-003, 1.3109e-005
 370.64300, 84.88478, 4.6791e-003, 1.3023e-005
 371.14300, 85.01769, 4.6857e-003, 1.3864e-005
 371.64300, 85.15073, 4.6928e-003, 1.3679e-005
 372.14300, 85.28367, 4.6995e-003, 1.3292e-005
 372.64300, 85.41647, 4.7061e-003, 1.3778e-005
 373.14300, 85.54918, 4.7135e-003, 1.3579e-005
 373.64300, 85.68242, 4.7198e-003, 1.4064e-005
 374.14300, 85.81584, 4.7275e-003, 1.4122e-005
 374.64300, 85.94916, 4.7341e-003, 1.4272e-005
 375.14300, 86.08291, 4.7412e-003, 1.4716e-005
 375.64300, 86.21675, 4.7487e-003, 1.3821e-005
 376.14300, 86.35096, 4.7555e-003, 1.5456e-005
 376.64300, 86.48540, 4.7630e-003, 1.4769e-005
 377.14300, 86.62008, 4.7704e-003, 1.4266e-005
 377.64300, 86.75516, 4.7776e-003, 1.4886e-005
 378.14300, 86.89050, 4.7855e-003, 1.4467e-005
 378.64300, 87.02600, 4.7924e-003, 1.4521e-005
 379.14300, 87.16193, 4.8003e-003, 1.5118e-005
 379.64300, 87.29800, 4.8075e-003, 1.4320e-005
 380.14300, 87.43443, 4.8146e-003, 1.4830e-005
 380.64300, 87.57126, 4.8225e-003, 1.5383e-005
 381.14300, 87.70834, 4.8297e-003, 1.5722e-005
 381.64300, 87.84547, 4.8375e-003, 1.4726e-005
 382.14300, 87.98299, 4.8451e-003, 1.5081e-005
 382.64300, 88.12083, 4.8523e-003, 1.4677e-005
 383.14300, 88.25870, 4.8600e-003, 1.4833e-005
 383.64300, 88.39696, 4.8669e-003, 1.4505e-005
 384.14300, 88.53559, 4.8746e-003, 1.4574e-005
 384.64300, 88.67440, 4.8818e-003, 1.4223e-005
 385.14300, 88.81340, 4.8895e-003, 1.6132e-005
 385.64300, 88.95263, 4.8969e-003, 1.4790e-005
 386.14300, 89.09231, 4.9042e-003, 1.5037e-005
 386.64300, 89.23178, 4.9120e-003, 1.5685e-005
 387.14300, 89.37147, 4.9196e-003, 1.5104e-005
 387.64300, 89.51171, 4.9274e-003, 1.4773e-005
 388.14300, 89.65202, 4.9342e-003, 1.5178e-005
 388.64300, 89.79228, 4.9413e-003, 1.5141e-005
 389.14300, 89.93303, 4.9497e-003, 1.5532e-005
 389.64300, 90.07403, 4.9575e-003, 1.4880e-005
 390.14300, 90.21492, 4.9646e-003, 1.5069e-005
 390.64300, 90.35599, 4.9721e-003, 1.5459e-005
 391.14300, 90.49728, 4.9795e-003, 1.5304e-005
 391.64300, 90.63891, 4.9870e-003, 1.4517e-005
 392.14300, 90.78090, 4.9949e-003, 1.5648e-005
 392.64300, 90.92294, 5.0026e-003, 1.4622e-005
 393.14300, 91.06505, 5.0097e-003, 1.5728e-005
 393.64300, 91.20761, 5.0179e-003, 1.4981e-005
 394.14300, 91.35018, 5.0251e-003, 1.5407e-005
 394.64300, 91.49271, 5.0327e-003, 1.5085e-005
 395.14300, 91.63562, 5.0402e-003, 1.5151e-005
 395.64300, 91.77877, 5.0476e-003, 1.4786e-005
 396.14300, 91.92180, 5.0553e-003, 1.5950e-005
 396.64300, 92.06516, 5.0627e-003, 1.5101e-005
 397.14300, 92.20852, 5.0702e-003, 1.4484e-005
 397.64300, 92.35220, 5.0777e-003, 1.4648e-005
 398.14300, 92.49616, 5.0855e-003, 1.5441e-005
 398.64300, 92.64037, 5.0934e-003, 1.5115e-005
 399.14300, 92.78454, 5.1009e-003, 1.5322e-005
 399.64300, 92.92893, 5.1083e-003, 1.5032e-005
 400.14300, 93.07342, 5.1157e-003, 1.5019e-005
 400.64300, 93.21821, 5.1236e-003, 1.5062e-005
 401.14300, 93.36346, 5.1306e-003, 1.5107e-005
 401.64300, 93.50893, 5.1387e-003, 1.5537e-005
 402.14300, 93.65458, 5.1458e-003, 1.5271e-005
 402.64300, 93.80028, 5.1537e-003, 1.4645e-005
 403.14300, 93.94604, 5.1613e-003, 1.4872e-005
 403.64300, 94.09148, 5.1686e-003, 1.4645e-005
 404.14300, 94.23731, 5.1759e-003, 1.5275e-005
 404.64300, 94.38335, 5.1837e-003, 1.5004e-005
 405.14300, 94.52956, 5.1909e-003, 1.4470e-005
 405.64300, 94.67582, 5.1985e-003, 1.5611e-005
 406.14300, 94.82247, 5.2062e-003, 1.5483e-005
 406.64300, 94.96925, 5.2134e-003, 1.4525e-005
 407.14300, 95.11593, 5.2214e-003, 1.5267e-005
 407.64300, 95.26274, 5.2282e-003, 1.5066e-005
 408.14300, 95.40986, 5.2363e-003, 1.4209e-005
 408.64300, 95.55710, 5.2437e-003, 1.5372e-005
 409.14300, 95.70412, 5.2508e-003, 1.4669e-005
 409.64300, 95.85133, 5.2588e-003, 1.5465e-005
 410.14300, 95.99865, 5.2659e-003, 1.4207e-005
 410.64300, 96.14564, 5.2735e-003, 1.5011e-005
 411.14300, 96.29228, 5.2808e-003, 1.4995e-005
 411.64300, 96.43924, 5.2884e-003, 1.5594e-005
 412.14300, 96.58642, 5.2962e-003, 1.4629e-005
 412.64300, 96.73372, 5.3033e-003, 1.4522e-005
 413.14300, 96.88114, 5.3107e-003, 1.4809e-005
 413.64300, 97.02870, 5.3180e-003, 1.4978e-005
 414.14300, 97.17596, 5.3252e-003, 1.4591e-005
 414.64300, 97.32342, 5.3330e-003, 1.4472e-005
 415.14300, 97.47081, 5.3406e-003, 1.5197e-005
 415.64300, 97.61852, 5.3473e-003, 1.4647e-005
 416.14300, 97.76683, 5.3555e-003, 1.4551e-005
 416.64300, 97.91531, 5.3623e-003, 1.5308e-005
 417.14300, 98.06361, 5.3700e-003, 1.4728e-005
 417.64300, 98.21229, 5.3778e-003, 1.5565e-005
 418.14300, 98.36053, 5.3847e-003, 1.4568e-005
 418.64300, 98.50827, 5.3919e-003, 1.4381e-005
 419.14300, 98.65628, 5.3998e-003, 1.4738e-005
 419.64300, 98.80435, 5.4071e-003, 1.4647e-005
 420.14300, 98.95230, 5.4141e-003, 1.4979e-005
 420.64300, 99.10131, 5.4217e-003, 1.5559e-005
 421.14300, 99.25058, 5.4294e-003, 1.5524e-005
 421.64300, 99.39980, 5.4368e-003, 1.5253e-005
 422.14300, 99.54904, 5.4448e-003, 1.5065e-005
 422.64300, 99.69825, 5.4517e-003, 1.5415e-005
 423.14300, 99.84717, 5.4594e-003, 1.4921e-005
 423.64300, 99.99647, 5.4664e-003, 1.4779e-005
 424.14300,100.14584, 5.4739e-003, 1.4518e-005
 424.64300,100.29525, 5.4809e-003, 1.4492e-005
 425.14300,100.44479, 5.4889e-003, 1.4635e-005
 425.64300,100.59445, 5.4967e-003, 1.5406e-005
 426.14300,100.74413, 5.5043e-003, 1.4463e-005
 426.64300,100.89386, 5.5116e-003, 1.4750e-005
 427.14300,101.04365, 5.5189e-003, 1.5963e-005
 427.64300,101.19372, 5.5267e-003, 1.5228e-005
 428.14300,101.34378, 5.5346e-003, 1.5791e-005
 428.64300,101.49390, 5.5417e-003, 1.3886e-005
 429.14300,101.64461, 5.5493e-003, 1.4445e-005
 429.64300,101.79573, 5.5562e-003, 1.4204e-005
 430.14300,101.94654, 5.5639e-003, 1.4377e-005
 430.64300,102.09759, 5.5711e-003, 1.5152e-005
 431.14300,102.24853, 5.5791e-003, 1.5082e-005
 431.64300,102.39907, 5.5860e-003, 1.5100e-005
 432.14300,102.54975, 5.5936e-003, 1.5197e-005
 432.64300,102.70067, 5.6013e-003, 1.5308e-005
 433.14300,102.85131, 5.6085e-003, 1.4045e-005
 433.64300,103.00169, 5.6160e-003, 1.4542e-005
 434.14300,103.15238, 5.6235e-003, 1.5218e-005
 434.64300,103.30317, 5.6307e-003, 1.3280e-005
 435.14300,103.45400, 5.6380e-003, 1.5964e-005
 435.64300,103.60500, 5.6457e-003, 1.4672e-005
 436.14300,103.75610, 5.6534e-003, 1.4883e-005
 436.64300,103.90660, 5.6607e-003, 1.4650e-005
 437.14300,104.05732, 5.6681e-003, 1.4761e-005
 437.64300,104.20788, 5.6748e-003, 1.4999e-005
 438.14300,104.35850, 5.6824e-003, 1.3624e-005
 438.64300,104.50964, 5.6892e-003, 1.4873e-005
 439.14300,104.66119, 5.6968e-003, 1.5221e-005
 439.64300,104.81280, 5.7041e-003, 1.4931e-005
 440.14300,104.96444, 5.7118e-003, 1.3989e-005
 440.64300,105.11623, 5.7191e-003, 1.4605e-005
 441.14300,105.26801, 5.7265e-003, 1.4948e-005
 441.64300,105.41957, 5.7344e-003, 1.5765e-005
 442.14300,105.57142, 5.7419e-003, 1.3656e-005
 442.64300,105.72362, 5.7486e-003, 1.5759e-005
 443.14300,105.87594, 5.7562e-003, 1.4957e-005
 443.64300,106.02825, 5.7639e-003, 1.4100e-005
 444.14300,106.18102, 5.7710e-003, 1.4722e-005
 444.64300,106.33362, 5.7788e-003, 1.4685e-005
 445.14300,106.48600, 5.7859e-003, 1.5874e-005
 445.64300,106.63812, 5.7937e-003, 1.4495e-005
 446.14300,106.79061, 5.8010e-003, 1.4645e-005
 446.64300,106.94287, 5.8082e-003, 1.4678e-005
 447.14300,107.09574, 5.8160e-003, 1.5068e-005
 447.64300,107.24873, 5.8232e-003, 1.5788e-005
 448.14300,107.40189, 5.8308e-003, 1.5685e-005
 448.64300,107.55458, 5.8380e-003, 1.4912e-005
 449.14300,107.70724, 5.8456e-003, 1.5129e-005
 449.64300,107.86000, 5.8527e-003, 1.3401e-005
 450.14300,108.01307, 5.8604e-003, 1.6009e-005
 450.64300,108.16689, 5.8678e-003, 1.4398e-005
 451.14300,108.32102, 5.8749e-003, 1.5280e-005
 451.64300,108.47475, 5.8823e-003, 1.4762e-005
 452.14300,108.62834, 5.8905e-003, 1.4503e-005
 452.64300,108.78193, 5.8973e-003, 1.4257e-005
 453.14300,108.93520, 5.9043e-003, 1.4693e-005
 453.64300,109.08886, 5.9117e-003, 1.4467e-005
 454.14300,109.24282, 5.9190e-003, 1.4643e-005
 454.64300,109.39679, 5.9261e-003, 1.5047e-005
 455.14300,109.55076, 5.9339e-003, 1.4560e-005
 455.64300,109.70453, 5.9410e-003, 1.4260e-005
 456.14300,109.85862, 5.9486e-003, 1.5191e-005
 456.64300,110.01266, 5.9561e-003, 1.5384e-005
 457.14300,110.16692, 5.9636e-003, 1.4358e-005
 457.64300,110.32123, 5.9711e-003, 1.6114e-005
 458.14300,110.47540, 5.9791e-003, 1.4796e-005
 458.64300,110.62937, 5.9865e-003, 1.5104e-005
 459.14300,110.78344, 5.9943e-003, 1.6077e-005
 459.64300,110.93800, 6.0024e-003, 1.5610e-005
 460.14300,111.09300, 6.0105e-003, 1.5342e-005
 460.64300,111.24841, 6.0182e-003, 1.6454e-005
 461.14300,111.40442, 6.0268e-003, 1.5803e-005
 461.64300,111.56097, 6.0344e-003, 1.6033e-005
 462.14300,111.71812, 6.0425e-003, 1.6513e-005
 462.64300,111.87581, 6.0507e-003, 1.6254e-005
 463.14300,112.03438, 6.0587e-003, 1.6796e-005
 463.64300,112.19337, 6.0673e-003, 1.6273e-005
 464.14300,112.35232, 6.0752e-003, 1.6985e-005
 464.64300,112.51134, 6.0829e-003, 1.5134e-005
 465.14300,112.67037, 6.0910e-003, 1.6454e-005
 465.64300,112.82901, 6.0989e-003, 1.4808e-005
 466.14300,112.98768, 6.1067e-003, 1.5414e-005
 466.64300,113.14620, 6.1141e-003, 1.5755e-005
 467.14300,113.30427, 6.1214e-003, 1.4798e-005
 467.64300,113.46183, 6.1290e-003, 1.4868e-005
 468.14300,113.61832, 6.1363e-003, 1.4433e-005
 468.64300,113.77473, 6.1430e-003, 1.3504e-005
 469.14300,113.93040, 6.1504e-003, 1.3429e-005
 469.64300,114.08540, 6.1567e-003, 1.3756e-005
 470.14300,114.24004, 6.1640e-003, 1.3343e-005
 470.64300,114.39396, 6.1705e-003, 1.3344e-005
 471.14300,114.54673, 6.1768e-003, 1.3171e-005
 471.64300,114.69929, 6.1835e-003, 1.3008e-005
 472.14300,114.85136, 6.1906e-003, 1.2980e-005
 472.64300,115.00250, 6.1975e-003, 1.2585e-005
 473.14300,115.15329, 6.2037e-003, 1.3753e-005
 473.64300,115.30373, 6.2102e-003, 1.3358e-005
 474.14300,115.45383, 6.2175e-003, 1.3237e-005
 474.64300,115.60365, 6.2240e-003, 1.3717e-005
 475.14300,115.75380, 6.2302e-003, 1.3500e-005
 475.64300,115.90417, 6.2369e-003, 1.3466e-005
 476.14300,116.05468, 6.2439e-003, 1.4333e-005
 476.64300,116.20523, 6.2508e-003, 1.3984e-005
 477.14300,116.35514, 6.2577e-003, 1.5053e-005
 477.64300,116.50533, 6.2649e-003, 1.4085e-005
 478.14300,116.65534, 6.2720e-003, 1.3548e-005
 478.64300,116.80573, 6.2787e-003, 1.4161e-005
 479.14300,116.95689, 6.2858e-003, 1.4541e-005
 479.64300,117.10861, 6.2931e-003, 1.3433e-005
 480.14300,117.26010, 6.2998e-003, 1.3455e-005
 480.64300,117.41200, 6.3067e-003, 1.3996e-005
 481.14300,117.56367, 6.3136e-003, 1.4464e-005
 481.64300,117.71585, 6.3207e-003, 1.5119e-005
 482.14300,117.86839, 6.3281e-003, 1.4898e-005
 482.64300,118.02121, 6.3360e-003, 1.3912e-005
 483.14300,118.17388, 6.3425e-003, 1.5364e-005
 483.64300,118.32682, 6.3499e-003, 1.3965e-005
 484.14300,118.47976, 6.3572e-003, 1.4146e-005
 484.64300,118.63310, 6.3645e-003, 1.4955e-005
 485.14300,118.78691, 6.3713e-003, 1.3335e-005
 485.64300,118.94156, 6.3785e-003, 1.3563e-005
 486.14300,119.09655, 6.3862e-003, 1.5756e-005
 486.64300,119.25153, 6.3930e-003, 1.4062e-005
 487.14300,119.40672, 6.4001e-003, 1.4145e-005
 487.64300,119.56214, 6.4072e-003, 1.3487e-005
 488.14300,119.71711, 6.4146e-003, 1.4687e-005
 488.64300,119.87283, 6.4220e-003, 1.4204e-005
 489.14300,120.02854, 6.4292e-003, 1.4731e-005
 489.64300,120.18490, 6.4369e-003, 1.3580e-005
 490.14300,120.34151, 6.4438e-003, 1.5380e-005
 490.64300,120.49852, 6.4514e-003, 1.4612e-005
 491.14300,120.65580, 6.4585e-003, 1.4894e-005
 491.64300,120.81322, 6.4660e-003, 1.3879e-005
 492.14300,120.97087, 6.4730e-003, 1.5235e-005
 492.64300,121.12896, 6.4804e-003, 1.4402e-005
 493.14300,121.28723, 6.4876e-003, 1.4234e-005
 493.64300,121.44579, 6.4949e-003, 1.4018e-005
 494.14300,121.60447, 6.5022e-003, 1.4782e-005
 494.64300,121.76387, 6.5097e-003, 1.5048e-005
 495.14300,121.92336, 6.5168e-003, 1.4413e-005
 495.64300,122.08272, 6.5243e-003, 1.3665e-005
 496.14300,122.24164, 6.5315e-003, 1.5140e-005
 496.64300,122.40032, 6.5384e-003, 1.4664e-005
 497.14300,122.55881, 6.5461e-003, 1.4152e-005
 497.64300,122.71720, 6.5531e-003, 1.5440e-005
 498.14300,122.87613, 6.5611e-003, 1.5098e-005
 498.64300,123.03556, 6.5682e-003, 1.4085e-005
 499.14300,123.19514, 6.5749e-003, 1.4963e-005
 499.64300,123.35504, 6.5822e-003, 1.4342e-005
 500.14300,123.51521, 6.5894e-003, 1.4632e-005
 500.64300,123.67560, 6.5964e-003, 1.3139e-005
 501.14300,123.83637, 6.6033e-003, 1.4655e-005
 501.64300,123.99714, 6.6107e-003, 1.5288e-005
 502.14300,124.15802, 6.6184e-003, 1.4025e-005
 502.64300,124.31898, 6.6251e-003, 1.4019e-005
 503.14300,124.47981, 6.6326e-003, 1.4017e-005
 503.64300,124.64092, 6.6402e-003, 1.5031e-005
 504.14300,124.80212, 6.6470e-003, 1.4949e-005
 504.64300,124.96348, 6.6547e-003, 1.4194e-005
 505.14300,125.12505, 6.6618e-003, 1.5415e-005
 505.64300,125.28656, 6.6694e-003, 1.4144e-005
 506.14300,125.44888, 6.6765e-003, 1.5468e-005
 506.64300,125.61168, 6.6842e-003, 1.4842e-005
 507.14300,125.77444, 6.6911e-003, 1.5324e-005
 507.64300,125.93730, 6.6984e-003, 1.4302e-005
 508.14300,126.10003, 6.7056e-003, 1.4424e-005
 508.64300,126.26232, 6.7132e-003, 1.4255e-005
 509.14300,126.42504, 6.7198e-003, 1.4470e-005
 509.64300,126.58747, 6.7270e-003, 1.4612e-005
 510.14300,126.75022, 6.7348e-003, 1.4244e-005
 510.64300,126.91276, 6.7418e-003, 1.5210e-005
 511.14300,127.07514, 6.7490e-003, 1.4834e-005
 511.64300,127.23787, 6.7560e-003, 1.3719e-005
 512.14300,127.40090, 6.7626e-003, 1.4707e-005
 512.64300,127.56359, 6.7703e-003, 1.5016e-005
 513.14300,127.72625, 6.7777e-003, 1.5286e-005
 513.64300,127.88842, 6.7848e-003, 1.3895e-005
 514.14300,128.05036, 6.7925e-003, 1.4287e-005
 514.64300,128.21269, 6.7991e-003, 1.4617e-005
 515.14300,128.37582, 6.8067e-003, 1.4407e-005
 515.64300,128.53931, 6.8141e-003, 1.3947e-005
 516.14300,128.70326, 6.8209e-003, 1.5325e-005
 516.64300,128.86771, 6.8284e-003, 1.4564e-005
 517.14300,129.03199, 6.8359e-003, 1.4435e-005
 517.64300,129.19646, 6.8435e-003, 1.4025e-005
 518.14300,129.36103, 6.8505e-003, 1.4905e-005
 518.64300,129.52529, 6.8577e-003, 1.5218e-005
 519.14300,129.68965, 6.8650e-003, 1.4012e-005
 519.64300,129.85345, 6.8723e-003, 1.5054e-005
 520.14300,130.01717, 6.8797e-003, 1.4497e-005
 520.64300,130.18130, 6.8872e-003, 1.4968e-005
 521.14300,130.34533, 6.8944e-003, 1.4053e-005
 521.64300,130.51014, 6.9019e-003, 1.4205e-005
 522.14300,130.67548, 6.9089e-003, 1.5377e-005
 522.64300,130.84047, 6.9164e-003, 1.5068e-005
 523.14300,131.00558, 6.9238e-003, 1.3909e-005
 523.64300,131.17044, 6.9305e-003, 1.3986e-005
 524.14300,131.33479, 6.9381e-003, 1.4353e-005
 524.64300,131.49919, 6.9451e-003, 1.3769e-005
 525.14300,131.66314, 6.9521e-003, 1.3844e-005
 525.64300,131.82698, 6.9597e-003, 1.6101e-005
 526.14300,131.99053, 6.9667e-003, 1.4800e-005
 526.64300,132.15386, 6.9738e-003, 1.5002e-005
 527.14300,132.31786, 6.9811e-003, 1.4753e-005
 527.64300,132.48229, 6.9885e-003, 1.3743e-005
 528.14300,132.64705, 6.9959e-003, 1.4395e-005
 528.64300,132.81236, 7.0035e-003, 1.5241e-005
 529.14300,132.97731, 7.0106e-003, 1.4145e-005
 529.64300,133.14221, 7.0180e-003, 1.4419e-005
 530.14300,133.30697, 7.0256e-003, 1.5046e-005
 530.64300,133.47096, 7.0325e-003, 1.3911e-005
 531.14300,133.63517, 7.0402e-003, 1.5067e-005
 531.64300,133.79918, 7.0478e-003, 1.4162e-005
 532.14300,133.96323, 7.0546e-003, 1.5192e-005
 532.64300,134.12805, 7.0614e-003, 1.3851e-005
 533.14300,134.29317, 7.0692e-003, 1.4366e-005
 533.64300,134.45885, 7.0762e-003, 1.5099e-005
 534.14300,134.62491, 7.0837e-003, 1.4437e-005
 534.64300,134.79083, 7.0906e-003, 1.5520e-005
 535.14300,134.95639, 7.0986e-003, 1.4557e-005
 535.64300,135.12188, 7.1058e-003, 1.5717e-005
 536.14300,135.28742, 7.1130e-003, 1.4579e-005
 536.64300,135.45279, 7.1205e-003, 1.5478e-005
 537.14300,135.61851, 7.1282e-003, 1.4669e-005
 537.64300,135.78418, 7.1354e-003, 1.4731e-005
 538.14300,135.95031, 7.1425e-003, 1.3880e-005
 538.64300,136.11683, 7.1494e-003, 1.4854e-005
 539.14300,136.28348, 7.1570e-003, 1.5080e-005
 539.64300,136.44998, 7.1644e-003, 1.3805e-005
 540.14300,136.61576, 7.1711e-003, 1.4099e-005
 540.64300,136.78126, 7.1784e-003, 1.4602e-005
 541.14300,136.94668, 7.1857e-003, 1.4401e-005
 541.64300,137.11201, 7.1932e-003, 1.5680e-005
 542.14300,137.27793, 7.2002e-003, 1.4108e-005
 542.64300,137.44380, 7.2075e-003, 1.5045e-005
 543.14300,137.60959, 7.2148e-003, 1.5031e-005
 543.64300,137.77592, 7.2225e-003, 1.5269e-005
 544.14300,137.94212, 7.2293e-003, 1.5214e-005
 544.64300,138.10827, 7.2369e-003, 1.4863e-005
 545.14300,138.27498, 7.2443e-003, 1.3728e-005
 545.64300,138.44166, 7.2513e-003, 1.5171e-005
 546.14300,138.60868, 7.2588e-003, 1.5038e-005
 546.64300,138.77580, 7.2664e-003, 1.4354e-005
 547.14300,138.94344, 7.2732e-003, 1.4349e-005
 547.64300,139.11134, 7.2813e-003, 1.4386e-005
 548.14300,139.27907, 7.2881e-003, 1.4253e-005
 548.64300,139.44731, 7.2953e-003, 1.4036e-005
 549.14300,139.61535, 7.3025e-003, 1.4815e-005
 549.64300,139.78304, 7.3101e-003, 1.5293e-005
 550.14300,139.95132, 7.3173e-003, 1.4340e-005
 550.64300,140.11931, 7.3240e-003, 1.4544e-005
 551.14300,140.28739, 7.3316e-003, 1.4823e-005
 551.64300,140.45561, 7.3385e-003, 1.4657e-005
 552.14300,140.62333, 7.3459e-003, 1.4182e-005
 552.64300,140.79100, 7.3535e-003, 1.4739e-005
 553.14300,140.95828, 7.3603e-003, 1.4822e-005
 553.64300,141.12608, 7.3676e-003, 1.5633e-005
 554.14300,141.29393, 7.3754e-003, 1.5122e-005
 554.64300,141.46171, 7.3825e-003, 1.2978e-005
 555.14300,141.62954, 7.3890e-003, 1.5063e-005
 555.64300,141.79732, 7.3967e-003, 1.4993e-005
 556.14300,141.96457, 7.4035e-003, 1.4060e-005
 556.64300,142.13180, 7.4108e-003, 1.6413e-005
 557.14300,142.29936, 7.4185e-003, 1.3776e-005
 557.64300,142.46716, 7.4259e-003, 1.5847e-005
 558.14300,142.63558, 7.4331e-003, 1.4287e-005
 558.64300,142.80359, 7.4403e-003, 1.4558e-005
 559.14300,142.97183, 7.4476e-003, 1.4602e-005
 559.64300,143.13997, 7.4555e-003, 1.5131e-005
 560.14300,143.30845, 7.4623e-003, 1.5599e-005
 560.64300,143.47703, 7.4696e-003, 1.3716e-005
 561.14300,143.64548, 7.4770e-003, 1.5025e-005
 561.64300,143.81398, 7.4848e-003, 1.3780e-005
 562.14300,143.98227, 7.4915e-003, 1.4879e-005
 562.64300,144.15136, 7.4990e-003, 1.3990e-005
 563.14300,144.32070, 7.5068e-003, 1.4786e-005
 563.64300,144.48984, 7.5139e-003, 1.4473e-005
 564.14300,144.65901, 7.5210e-003, 1.5245e-005
 564.64300,144.82840, 7.5283e-003, 1.3585e-005
 565.14300,144.99797, 7.5354e-003, 1.4187e-005
 565.64300,145.16802, 7.5428e-003, 1.3681e-005
 566.14300,145.33806, 7.5502e-003, 1.5082e-005
 566.64300,145.50826, 7.5575e-003, 1.4305e-005
 567.14300,145.67794, 7.5647e-003, 1.4270e-005
 567.64300,145.84748, 7.5719e-003, 1.5310e-005
 568.14300,146.01746, 7.5793e-003, 1.3573e-005
 568.64300,146.18692, 7.5868e-003, 1.4134e-005
 569.14300,146.35671, 7.5936e-003, 1.4418e-005
 569.64300,146.52654, 7.6008e-003, 1.4641e-005
 570.14300,146.69663, 7.6081e-003, 1.4090e-005
 570.64300,146.86722, 7.6159e-003, 1.5086e-005
 571.14300,147.03803, 7.6230e-003, 1.4898e-005
 571.64300,147.20891, 7.6304e-003, 1.4482e-005
 572.14300,147.38009, 7.6378e-003, 1.5166e-005
 572.64300,147.55095, 7.6455e-003, 1.4887e-005
 573.14300,147.72218, 7.6520e-003, 1.3790e-005
 573.64300,147.89339, 7.6597e-003, 1.5078e-005
 574.14300,148.06444, 7.6666e-003, 1.5245e-005
 574.64300,148.23533, 7.6740e-003, 1.4905e-005
 575.14300,148.40601, 7.6813e-003, 1.4851e-005
 575.64300,148.57668, 7.6892e-003, 1.5547e-005
 576.14300,148.74783, 7.6966e-003, 1.4868e-005
 576.64300,148.91900, 7.7038e-003, 1.5962e-005
 577.14300,149.09082, 7.7125e-003, 1.5184e-005
 577.64300,149.26349, 7.7194e-003, 1.5323e-005
 578.14300,149.43550, 7.7277e-003, 1.6151e-005
 578.64300,149.60840, 7.7355e-003, 1.6328e-005
 579.14300,149.78184, 7.7436e-003, 1.6480e-005
 579.64300,149.95574, 7.7517e-003, 1.6431e-005
 580.14300,150.13060, 7.7599e-003, 1.7447e-005
 580.64300,150.30588, 7.7676e-003, 1.5524e-005
 581.14300,150.48134, 7.7756e-003, 1.6671e-005
 581.64300,150.65739, 7.7841e-003, 1.6009e-005
 582.14300,150.83395, 7.7919e-003, 1.6232e-005
 582.64300,151.01076, 7.8001e-003, 1.5945e-005
 583.14300,151.18776, 7.8077e-003, 1.5596e-005
 583.64300,151.36439, 7.8157e-003, 1.5540e-005
 584.14300,151.54062, 7.8229e-003, 1.5726e-005
 584.64300,151.71619, 7.8310e-003, 1.3851e-005
 585.14300,151.89051, 7.8379e-003, 1.5044e-005
 585.64300,152.06386, 7.8444e-003, 1.3864e-005
 586.14300,152.23621, 7.8524e-003, 1.4765e-005
 586.64300,152.40793, 7.8591e-003, 1.3148e-005
 587.14300,152.57896, 7.8661e-003, 1.4185e-005
 587.64300,152.74952, 7.8723e-003, 1.3465e-005
 588.14300,152.91931, 7.8792e-003, 1.3139e-005
 588.64300,153.08843, 7.8863e-003, 1.3306e-005
 589.14300,153.25662, 7.8930e-003, 1.3012e-005
 589.64300,153.42359, 7.8997e-003, 1.3920e-005
 590.14300,153.59010, 7.9065e-003, 1.2554e-005
 590.64300,153.75617, 7.9129e-003, 1.3462e-005
 591.14300,153.92173, 7.9199e-003, 1.3059e-005
 591.64300,154.08798, 7.9267e-003, 1.3838e-005
 592.14300,154.25397, 7.9335e-003, 1.4113e-005
 592.64300,154.41947, 7.9401e-003, 1.3782e-005
 593.14300,154.58515, 7.9475e-003, 1.4094e-005
 593.64300,154.75163, 7.9542e-003, 1.4082e-005
 594.14300,154.91837, 7.9613e-003, 1.4749e-005
 594.64300,155.08588, 7.9685e-003, 1.4640e-005
 595.14300,155.25403, 7.9758e-003, 1.3622e-005
 595.64300,155.42200, 7.9830e-003, 1.5383e-005
 596.14300,155.59070, 7.9905e-003, 1.5034e-005
 596.64300,155.75963, 7.9979e-003, 1.4628e-005
 597.14300,155.92847, 8.0050e-003, 1.4823e-005
 597.64300,156.09746, 8.0126e-003, 1.5088e-005
 598.14300,156.26652, 8.0201e-003, 1.4262e-005
 598.64300,156.43578, 8.0273e-003, 1.5006e-005
 599.14300,156.60583, 8.0340e-003, 1.3997e-005
 599.64300,156.77630, 8.0414e-003, 1.3446e-005
 600.14300,156.94686, 8.0487e-003, 1.5480e-005
 600.64300,157.11811, 8.0559e-003, 1.4779e-005
 601.14300,157.28927, 8.0631e-003, 1.5556e-005
 601.64300,157.46090, 8.0703e-003, 1.4765e-005
 602.14300,157.63273, 8.0775e-003, 1.3741e-005
 602.64300,157.80439, 8.0849e-003, 1.4578e-005
 603.14300,157.97574, 8.0922e-003, 1.5061e-005
 603.64300,158.14699, 8.0992e-003, 1.4662e-005
 604.14300,158.31862, 8.1066e-003, 1.4545e-005
 604.64300,158.49039, 8.1143e-003, 1.3985e-005
 605.14300,158.66276, 8.1210e-003, 1.4516e-005
 605.64300,158.83544, 8.1283e-003, 1.5462e-005
 606.14300,159.00846, 8.1362e-003, 1.4122e-005
 606.64300,159.18194, 8.1433e-003, 1.5013e-005
 607.14300,159.35574, 8.1508e-003, 1.3559e-005
 607.64300,159.52966, 8.1577e-003, 1.4414e-005
 608.14300,159.70350, 8.1652e-003, 1.5493e-005
 608.64300,159.87752, 8.1734e-003, 1.4445e-005
 609.14300,160.05159, 8.1799e-003, 1.3691e-005
 609.64300,160.22566, 8.1873e-003, 1.4061e-005
 610.14300,160.40005, 8.1946e-003, 1.3967e-005
 610.64300,160.57453, 8.2018e-003, 1.3938e-005
 611.14300,160.74913, 8.2092e-003, 1.4563e-005
 611.64300,160.92413, 8.2161e-003, 1.4894e-005
 612.14300,161.09953, 8.2234e-003, 1.5798e-005
 612.64300,161.27511, 8.2313e-003, 1.4003e-005
 613.14300,161.45061, 8.2381e-003, 1.4332e-005
 613.64300,161.62635, 8.2454e-003, 1.5175e-005
 614.14300,161.80186, 8.2525e-003, 1.4454e-005
 614.64300,161.97720, 8.2601e-003, 1.4001e-005
 615.14300,162.15280, 8.2674e-003, 1.3917e-005
 615.64300,162.32842, 8.2742e-003, 1.4580e-005
 616.14300,162.50438, 8.2820e-003, 1.3957e-005
 616.64300,162.68031, 8.2887e-003, 1.4359e-005
 617.14300,162.85586, 8.2962e-003, 1.5335e-005
 617.64300,163.03145, 8.3037e-003, 1.5760e-005
 618.14300,163.20725, 8.3112e-003, 1.3715e-005
 618.64300,163.38322, 8.3183e-003, 1.4663e-005
 619.14300,163.55957, 8.3254e-003, 1.5190e-005
 619.64300,163.73633, 8.3324e-003, 1.4251e-005
 620.14300,163.91292, 8.3398e-003, 1.3971e-005
 620.64300,164.08980, 8.3467e-003, 1.4592e-005
 621.14300,164.26694, 8.3546e-003, 1.4878e-005
 621.64300,164.44367, 8.3614e-003, 1.4475e-005
 622.14300,164.62006, 8.3685e-003, 1.5087e-005
 622.64300,164.79625, 8.3764e-003, 1.3869e-005
 623.14300,164.97326, 8.3832e-003, 1.4217e-005
 623.64300,165.15017, 8.3907e-003, 1.5179e-005
 624.14300,165.32737, 8.3981e-003, 1.4895e-005
 624.64300,165.50481, 8.4055e-003, 1.5366e-005
 625.14300,165.68196, 8.4130e-003, 1.3404e-005
 625.64300,165.86015, 8.4197e-003, 1.5312e-005
 626.14300,166.03883, 8.4275e-003, 1.5683e-005
 626.64300,166.21762, 8.4347e-003, 1.5165e-005
 627.14300,166.39596, 8.4423e-003, 1.4603e-005
 627.64300,166.57380, 8.4497e-003, 1.5838e-005
 628.14300,166.75173, 8.4568e-003, 1.3151e-005
 628.64300,166.92984, 8.4641e-003, 1.4362e-005
 629.14300,167.10790, 8.4712e-003, 1.4182e-005
 629.64300,167.28577, 8.4783e-003, 1.5088e-005
 630.14300,167.46344, 8.4856e-003, 1.4899e-005
 630.64300,167.64085, 8.4927e-003, 1.3871e-005
 631.14300,167.81825, 8.5003e-003, 1.3650e-005
 631.64300,167.99620, 8.5074e-003, 1.5170e-005
 632.14300,168.17445, 8.5147e-003, 1.4142e-005
 632.64300,168.35284, 8.5221e-003, 1.6281e-005
 633.14300,168.53157, 8.5297e-003, 1.4574e-005
 633.64300,168.71033, 8.5365e-003, 1.4270e-005
 634.14300,168.88917, 8.5434e-003, 1.5689e-005
 634.64300,169.06812, 8.5512e-003, 1.4888e-005
 635.14300,169.24718, 8.5583e-003, 1.3371e-005
 635.64300,169.42634, 8.5660e-003, 1.5047e-005
 636.14300,169.60524, 8.5730e-003, 1.4707e-005
 636.64300,169.78464, 8.5801e-003, 1.2771e-005
 637.14300,169.96384, 8.5869e-003, 1.4116e-005
 637.64300,170.14283, 8.5947e-003, 1.4347e-005
 638.14300,170.32212, 8.6018e-003, 1.5346e-005
 638.64300,170.50145, 8.6092e-003, 1.5203e-005
 639.14300,170.68092, 8.6163e-003, 1.4541e-005
 639.64300,170.85962, 8.6234e-003, 1.4504e-005
 640.14300,171.03804, 8.6307e-003, 1.4901e-005
 640.64300,171.21590, 8.6376e-003, 1.4845e-005
 641.14300,171.39376, 8.6448e-003, 1.4725e-005
 641.64300,171.57240, 8.6519e-003, 1.4775e-005
 642.14300,171.75130, 8.6598e-003, 1.4576e-005
 642.64300,171.93044, 8.6670e-003, 1.4271e-005
 643.14300,172.10963, 8.6744e-003, 1.4674e-005
 643.64300,172.28899, 8.6812e-003, 1.6273e-005
 644.14300,172.46827, 8.6888e-003, 1.3990e-005
 644.64300,172.64791, 8.6959e-003, 1.3725e-005
 645.14300,172.82795, 8.7029e-003, 1.3540e-005
 645.64300,173.00789, 8.7105e-003, 1.5182e-005
 646.14300,173.18813, 8.7185e-003, 1.4697e-005
 646.64300,173.36874, 8.7253e-003, 1.4568e-005
 647.14300,173.54950, 8.7329e-003, 1.4523e-005
 647.64300,173.73085, 8.7394e-003, 1.3842e-005
 648.14300,173.91165, 8.7462e-003, 1.4539e-005
 648.64300,174.09206, 8.7537e-003, 1.4335e-005
 649.14300,174.27179, 8.7610e-003, 1.3825e-005
 649.64300,174.45129, 8.7680e-003, 1.4528e-005
 650.14300,174.63125, 8.7754e-003, 1.4897e-005
 650.64300,174.81111, 8.7831e-003, 1.4045e-005
 651.14300,174.99122, 8.7897e-003, 1.4532e-005
 651.64300,175.17141, 8.7974e-003, 1.4113e-005
 652.14300,175.35168, 8.8039e-003, 1.4023e-005
 652.64300,175.53196, 8.8115e-003, 1.4938e-005
 653.14300,175.71324, 8.8188e-003, 1.4369e-005
 653.64300,175.89458, 8.8259e-003, 1.4459e-005
 654.14300,176.07617, 8.8326e-003, 1.4423e-005
 654.64300,176.25787, 8.8401e-003, 1.5804e-005
 655.14300,176.43872, 8.8476e-003, 1.5105e-005
 655.64300,176.61905, 8.8546e-003, 1.3248e-005
 656.14300,176.79928, 8.8617e-003, 1.4927e-005
 656.64300,176.97957, 8.8689e-003, 1.5210e-005
 657.14300,177.15997, 8.8764e-003, 1.4821e-005
 657.64300,177.34053, 8.8838e-003, 1.4610e-005
 658.14300,177.52077, 8.8906e-003, 1.5122e-005
 658.64300,177.70097, 8.8980e-003, 1.3131e-005
 659.14300,177.88095, 8.9051e-003, 1.4290e-005
 659.64300,178.06104, 8.9124e-003, 1.4172e-005
 660.14300,178.24162, 8.9194e-003, 1.3536e-005
 660.64300,178.42245, 8.9264e-003, 1.4994e-005
 661.14300,178.60379, 8.9334e-003, 1.5297e-005
 661.64300,178.78607, 8.9413e-003, 1.4230e-005
 662.14300,178.96861, 8.9483e-003, 1.5095e-005
 662.64300,179.15105, 8.9553e-003, 1.5173e-005
 663.14300,179.33339, 8.9626e-003, 1.3951e-005
 663.64300,179.51513, 8.9693e-003, 1.4562e-005
 664.14300,179.69673, 8.9772e-003, 1.4500e-005
 664.64300,179.87856, 8.9841e-003, 1.4378e-005
 665.14300,180.06094, 8.9917e-003, 1.3709e-005
 665.64300,180.24289, 8.9985e-003, 1.4486e-005
 666.14300,180.42491, 9.0055e-003, 1.4469e-005
 666.64300,180.60699, 9.0128e-003, 1.3918e-005
 667.14300,180.78889, 9.0206e-003, 1.5954e-005
 667.64300,180.97158, 9.0280e-003, 1.4527e-005
 668.14300,181.15509, 9.0356e-003, 1.5245e-005
 668.64300,181.33922, 9.0429e-003, 1.3788e-005
 669.14300,181.52407, 9.0507e-003, 1.6093e-005
 669.64300,181.70947, 9.0590e-003, 1.6630e-005
 670.14300,181.89516, 9.0670e-003, 1.4830e-005
 670.64300,182.08151, 9.0748e-003, 1.6479e-005
 671.14300,182.26829, 9.0829e-003, 1.5995e-005
 671.64300,182.45557, 9.0910e-003, 1.6280e-005
 672.14300,182.64360, 9.0990e-003, 1.5929e-005
 672.64300,182.83292, 9.1067e-003, 1.5903e-005
 673.14300,183.02275, 9.1150e-003, 1.5879e-005
 673.64300,183.21316, 9.1227e-003, 1.5637e-005
 674.14300,183.40230, 9.1303e-003, 1.5374e-005
 674.64300,183.59026, 9.1378e-003, 1.5215e-005
 675.14300,183.77746, 9.1451e-003, 1.4733e-005
 675.64300,183.96388, 9.1520e-003, 1.3653e-005
 676.14300,184.14958, 9.1591e-003, 1.3227e-005
 676.64300,184.33404, 9.1659e-003, 1.3984e-005
 677.14300,184.51756, 9.1731e-003, 1.4096e-005
 677.64300,184.69979, 9.1800e-003, 1.3189e-005
 678.14300,184.88113, 9.1865e-003, 1.3945e-005
 678.64300,185.06163, 9.1934e-003, 1.2873e-005
 679.14300,185.24163, 9.1999e-003, 1.3018e-005
 679.64300,185.42129, 9.2067e-003, 1.3718e-005
 680.14300,185.60079, 9.2133e-003, 1.3189e-005
 680.64300,185.78012, 9.2199e-003, 1.3105e-005
 681.14300,185.95894, 9.2271e-003, 1.4788e-005
 681.64300,186.13779, 9.2341e-003, 1.3155e-005
 682.14300,186.31638, 9.2410e-003, 1.4161e-005
 682.64300,186.49515, 9.2479e-003, 1.4187e-005
 683.14300,186.67459, 9.2555e-003, 1.4360e-005
 683.64300,186.85428, 9.2622e-003, 1.4171e-005
 684.14300,187.03465, 9.2688e-003, 1.3196e-005
 684.64300,187.21543, 9.2760e-003, 1.4531e-005
 685.14300,187.39592, 9.2838e-003, 1.5342e-005
 685.64300,187.57650, 9.2912e-003, 1.3644e-005
 686.14300,187.75706, 9.2978e-003, 1.4295e-005
 686.64300,187.93797, 9.3049e-003, 1.4322e-005
 687.14300,188.11950, 9.3117e-003, 1.4979e-005
 687.64300,188.30124, 9.3187e-003, 1.2511e-005
 688.14300,188.48352, 9.3258e-003, 1.3587e-005
 688.64300,188.66575, 9.3330e-003, 1.4688e-005
 689.14300,188.84877, 9.3408e-003, 1.5352e-005
 689.64300,189.03221, 9.3483e-003, 1.4612e-005
 690.14300,189.21601, 9.3547e-003, 1.5613e-005
 690.64300,189.40030, 9.3621e-003, 1.3527e-005
 691.14300,189.58406, 9.3694e-003, 1.4795e-005
 691.64300,189.76792, 9.3762e-003, 1.4356e-005
 692.14300,189.95208, 9.3837e-003, 1.4309e-005
 692.64300,190.13617, 9.3909e-003, 1.4935e-005
 693.14300,190.32085, 9.3985e-003, 1.4475e-005
 693.64300,190.50565, 9.4053e-003, 1.3856e-005
 694.14300,190.69032, 9.4123e-003, 1.5001e-005
 694.64300,190.87540, 9.4201e-003, 1.5219e-005
 695.14300,191.06047, 9.4267e-003, 1.4060e-005
 695.64300,191.24584, 9.4339e-003, 1.4497e-005
 696.14300,191.43159, 9.4409e-003, 1.4922e-005
 696.64300,191.61723, 9.4485e-003, 1.4489e-005
 697.14300,191.80335, 9.4554e-003, 1.4660e-005
 697.64300,191.98985, 9.4631e-003, 1.4272e-005
 698.14300,192.17716, 9.4708e-003, 1.4852e-005
 698.64300,192.36471, 9.4778e-003, 1.3956e-005
 699.14300,192.55312, 9.4851e-003, 1.3439e-005
 699.64300,192.74228, 9.4927e-003, 1.5126e-005
 700.14300,192.93169, 9.4998e-003, 1.4877e-005
 700.64300,193.12190, 9.5079e-003, 1.5677e-005
 701.14300,193.31251, 9.5143e-003, 1.5245e-005
 701.64300,193.50303, 9.5221e-003, 1.4949e-005
 702.14300,193.69372, 9.5291e-003, 1.4159e-005
 702.64300,193.88403, 9.5364e-003, 1.4201e-005
 703.14300,194.07375, 9.5434e-003, 1.3123e-005
 703.64300,194.26368, 9.5506e-003, 1.4360e-005
 704.14300,194.45373, 9.5574e-003, 1.4284e-005
 704.64300,194.64425, 9.5650e-003, 1.3716e-005
 705.14300,194.83437, 9.5721e-003, 1.4906e-005
 705.64300,195.02347, 9.5793e-003, 1.4074e-005
 706.14300,195.21271, 9.5868e-003, 1.2535e-005
 706.64300,195.40168, 9.5941e-003, 1.5274e-005
 707.14300,195.59140, 9.6010e-003, 1.3966e-005
 707.64300,195.78225, 9.6084e-003, 1.3125e-005
 708.14300,195.97322, 9.6153e-003, 1.5097e-005
 708.64300,196.16485, 9.6227e-003, 1.2793e-005
 709.14300,196.35646, 9.6300e-003, 1.4004e-005
 709.64300,196.54759, 9.6371e-003, 1.5067e-005
 710.14300,196.73851, 9.6443e-003, 1.4786e-005
 710.64300,196.92915, 9.6515e-003, 1.4432e-005
 711.14300,197.11959, 9.6584e-003, 1.4781e-005
 711.64300,197.31018, 9.6658e-003, 1.3438e-005
 712.14300,197.50077, 9.6726e-003, 1.3692e-005
 712.64300,197.69144, 9.6799e-003, 1.3787e-005
 713.14300,197.88223, 9.6868e-003, 1.4865e-005
 713.64300,198.07302, 9.6942e-003, 1.4283e-005
 714.14300,198.26408, 9.7014e-003, 1.5919e-005
 714.64300,198.45504, 9.7087e-003, 1.3136e-005
 715.14300,198.64639, 9.7159e-003, 1.5147e-005
 715.64300,198.83829, 9.7236e-003, 1.4448e-005
 716.14300,199.02997, 9.7310e-003, 1.4836e-005
 716.64300,199.22227, 9.7379e-003, 1.4690e-005
 717.14300,199.41477, 9.7451e-003, 1.4491e-005
 717.64300,199.60659, 9.7522e-003, 1.3672e-005
 718.14300,199.79870, 9.7598e-003, 1.5779e-005
 718.64300,199.98985, 9.7669e-003, 1.2807e-005
 719.14300,200.18153, 9.7743e-003, 1.4183e-005
 719.64300,200.37321, 9.7813e-003, 1.4698e-005
 720.14300,200.56380, 9.7883e-003, 1.4169e-005
 720.64300,200.75408, 9.7957e-003, 1.4550e-005
 721.14300,200.94356, 9.8028e-003, 1.4399e-005
 721.64300,201.13340, 9.8101e-003, 1.4266e-005
 722.14300,201.32372, 9.8168e-003, 1.3222e-005
 722.64300,201.51434, 9.8244e-003, 1.4383e-005
 723.14300,201.70489, 9.8316e-003, 1.4423e-005
 723.64300,201.89533, 9.8385e-003, 1.5139e-005
 724.14300,202.08608, 9.8468e-003, 1.5091e-005
 724.64300,202.27670, 9.8537e-003, 1.3825e-005
 725.14300,202.46744, 9.8604e-003, 1.4010e-005
 725.64300,202.65829, 9.8679e-003, 1.3345e-005
 726.14300,202.84921, 9.8746e-003, 1.5293e-005
 726.64300,203.04029, 9.8824e-003, 1.4130e-005
 727.14300,203.23152, 9.8896e-003, 1.3739e-005
 727.64300,203.42325, 9.8970e-003, 1.4570e-005
 728.14300,203.61520, 9.9039e-003, 1.4758e-005
 728.64300,203.80682, 9.9115e-003, 1.4948e-005
 729.14300,203.99873, 9.9188e-003, 1.4487e-005
 729.64300,204.19029, 9.9261e-003, 1.4764e-005
 730.14300,204.38162, 9.9327e-003, 1.3233e-005
 730.64300,204.57362, 9.9403e-003, 1.4793e-005
 731.14300,204.76568, 9.9478e-003, 1.5084e-005
 731.64300,204.95774, 9.9545e-003, 1.4981e-005
 732.14300,205.15017, 9.9619e-003, 1.5497e-005
 732.64300,205.34259, 9.9701e-003, 1.6123e-005
 733.14300,205.53505, 9.9776e-003, 1.5508e-005
 733.64300,205.72844, 9.9857e-003, 1.4660e-005
 734.14300,205.92272, 9.9930e-003, 1.5395e-005
 734.64300,206.11809, 1.0001e-002, 1.5790e-005
 735.14300,206.31456, 1.0009e-002, 1.5747e-005
 735.64300,206.51239, 1.0017e-002, 1.7500e-005
 736.14300,206.71073, 1.0025e-002, 1.5078e-005
 736.64300,206.90906, 1.0032e-002, 1.5456e-005
 737.14300,207.10719, 1.0041e-002, 1.5945e-005
 737.64300,207.30425, 1.0048e-002, 1.5047e-005
 738.14300,207.50207, 1.0055e-002, 1.4321e-005
 738.64300,207.70027, 1.0063e-002, 1.5873e-005
 739.14300,207.89773, 1.0071e-002, 1.3961e-005
 739.64300,208.09409, 1.0077e-002, 1.4357e-005
 740.14300,208.28872, 1.0084e-002, 1.4797e-005
 740.64300,208.48198, 1.0092e-002, 1.2716e-005
 741.14300,208.67413, 1.0099e-002, 1.4410e-005
 741.64300,208.86487, 1.0105e-002, 1.1724e-005
 742.14300,209.05486, 1.0112e-002, 1.4069e-005
 742.64300,209.24312, 1.0119e-002, 1.3819e-005
 743.14300,209.43106, 1.0125e-002, 1.3144e-005
 743.64300,209.61802, 1.0132e-002, 1.3735e-005
 744.14300,209.80407, 1.0139e-002, 1.3490e-005
 744.64300,209.98981, 1.0146e-002, 1.3110e-005
 745.14300,210.17509, 1.0152e-002, 1.3681e-005
 745.64300,210.36051, 1.0159e-002, 1.4379e-005
 746.14300,210.54647, 1.0166e-002, 1.2735e-005
 746.64300,210.73231, 1.0173e-002, 1.4546e-005
 747.14300,210.91814, 1.0180e-002, 1.4017e-005
 747.64300,211.10371, 1.0187e-002, 1.2864e-005
 748.14300,211.28872, 1.0194e-002, 1.3233e-005
 748.64300,211.47439, 1.0201e-002, 1.2907e-005
 749.14300,211.66017, 1.0209e-002, 1.4373e-005
 749.64300,211.84554, 1.0215e-002, 1.5198e-005
 750.14300,212.03143, 1.0222e-002, 1.4222e-005
 750.64300,212.21729, 1.0230e-002, 1.3999e-005
 751.14300,212.40402, 1.0237e-002, 1.4701e-005
 751.64300,212.59164, 1.0243e-002, 1.3326e-005
 752.14300,212.77945, 1.0251e-002, 1.4305e-005
 752.64300,212.96694, 1.0258e-002, 1.4991e-005
 753.14300,213.15435, 1.0265e-002, 1.4057e-005
 753.64300,213.34244, 1.0273e-002, 1.2487e-005
 754.14300,213.53151, 1.0280e-002, 1.5332e-005
 754.64300,213.72160, 1.0287e-002, 1.3892e-005
 755.14300,213.91218, 1.0294e-002, 1.3626e-005
 755.64300,214.10278, 1.0301e-002, 1.4690e-005
 756.14300,214.29355, 1.0308e-002, 1.4429e-005
 756.64300,214.48409, 1.0315e-002, 1.2560e-005
 757.14300,214.67373, 1.0322e-002, 1.4211e-005
 757.64300,214.86342, 1.0329e-002, 1.4738e-005
 758.14300,215.05253, 1.0335e-002, 1.2949e-005
 758.64300,215.24247, 1.0343e-002, 1.5751e-005
 759.14300,215.43304, 1.0349e-002, 1.4818e-005
 759.64300,215.62360, 1.0356e-002, 1.3081e-005
 760.14300,215.81442, 1.0364e-002, 1.4289e-005
 760.64300,216.00524, 1.0371e-002, 1.3499e-005
 761.14300,216.19609, 1.0378e-002, 1.4482e-005
 761.64300,216.38694, 1.0385e-002, 1.4867e-005
 762.14300,216.57767, 1.0392e-002, 1.2946e-005
 762.64300,216.76824, 1.0399e-002, 1.3598e-005
 763.14300,216.95830, 1.0406e-002, 1.4808e-005
 763.64300,217.14865, 1.0413e-002, 1.4470e-005
 764.14300,217.33907, 1.0420e-002, 1.3254e-005
 764.64300,217.53016, 1.0428e-002, 1.4060e-005
 765.14300,217.72211, 1.0435e-002, 1.3733e-005
 765.64300,217.91476, 1.0441e-002, 1.3275e-005
 766.14300,218.10744, 1.0449e-002, 1.4254e-005
 766.64300,218.30028, 1.0456e-002, 1.4482e-005
 767.14300,218.49270, 1.0463e-002, 1.2937e-005
 767.64300,218.68510, 1.0470e-002, 1.3574e-005
 768.14300,218.87767, 1.0477e-002, 1.3916e-005
 768.64300,219.07019, 1.0484e-002, 1.4033e-005
 769.14300,219.26240, 1.0491e-002, 1.4771e-005
 769.64300,219.45448, 1.0498e-002, 1.3502e-005
 770.14300,219.64673, 1.0505e-002, 1.4736e-005
 770.64300,219.83916, 1.0512e-002, 1.4774e-005
 771.14300,220.03192, 1.0519e-002, 1.5051e-005
 771.64300,220.22504, 1.0527e-002, 1.4668e-005
 772.14300,220.41863, 1.0534e-002, 1.4327e-005
 772.64300,220.61208, 1.0541e-002, 1.3315e-005
 773.14300,220.80607, 1.0549e-002, 1.5655e-005
 773.64300,220.99994, 1.0555e-002, 1.3657e-005
 774.14300,221.19396, 1.0563e-002, 1.5064e-005
 774.64300,221.38778, 1.0570e-002, 1.4242e-005
 775.14300,221.58144, 1.0577e-002, 1.4848e-005
 775.64300,221.77483, 1.0584e-002, 1.4396e-005
 776.14300,221.96810, 1.0591e-002, 1.4445e-005
 776.64300,222.16124, 1.0598e-002, 1.4634e-005
 777.14300,222.35443, 1.0606e-002, 1.5232e-005
 777.64300,222.54773, 1.0613e-002, 1.5477e-005
 778.14300,222.74156, 1.0620e-002, 1.5001e-005
 778.64300,222.93570, 1.0627e-002, 1.3266e-005
 779.14300,223.12950, 1.0634e-002, 1.3065e-005
 779.64300,223.32367, 1.0641e-002, 1.4666e-005
 780.14300,223.51742, 1.0649e-002, 1.5152e-005
 780.64300,223.71048, 1.0656e-002, 1.4375e-005
 781.14300,223.90423, 1.0663e-002, 1.5120e-005
 781.64300,224.09816, 1.0670e-002, 1.4060e-005
 782.14300,224.29280, 1.0678e-002, 1.5413e-005
 782.64300,224.48874, 1.0684e-002, 1.3375e-005
 783.14300,224.68441, 1.0692e-002, 1.3711e-005
 783.64300,224.88017, 1.0699e-002, 1.5080e-005
 784.14300,225.07523, 1.0706e-002, 1.3659e-005
 784.64300,225.26998, 1.0714e-002, 1.4209e-005
 785.14300,225.46461, 1.0721e-002, 1.2801e-005
 785.64300,225.65971, 1.0728e-002, 1.5656e-005
 786.14300,225.85467, 1.0735e-002, 1.4400e-005
 786.64300,226.05001, 1.0743e-002, 1.5163e-005
 787.14300,226.24552, 1.0750e-002, 1.4219e-005
 787.64300,226.44130, 1.0757e-002, 1.4720e-005
 788.14300,226.63733, 1.0763e-002, 1.4595e-005
 788.64300,226.83420, 1.0772e-002, 1.4835e-005
 789.14300,227.03128, 1.0778e-002, 1.4306e-005
 789.64300,227.22915, 1.0786e-002, 1.4949e-005
 790.14300,227.42820, 1.0793e-002, 1.6383e-005
 790.64300,227.62859, 1.0801e-002, 1.4546e-005
 791.14300,227.83108, 1.0809e-002, 1.5878e-005
 791.64300,228.03562, 1.0816e-002, 1.4528e-005
 792.14300,228.24135, 1.0824e-002, 1.4756e-005
 792.64300,228.44838, 1.0832e-002, 1.4332e-005
 793.14300,228.65609, 1.0839e-002, 1.4242e-005
 793.64300,228.86433, 1.0847e-002, 1.4967e-005
 794.14300,229.07373, 1.0854e-002, 1.4703e-005
 794.64300,229.28378, 1.0861e-002, 1.4779e-005
 795.14300,229.49449, 1.0869e-002, 1.4994e-005
 795.64300,229.70538, 1.0876e-002, 1.5687e-005
 796.14300,229.91685, 1.0884e-002, 1.4254e-005
 796.64300,230.13043, 1.0891e-002, 1.6838e-005
 797.14300,230.34733, 1.0899e-002, 1.4259e-005
 797.64300,230.56803, 1.0907e-002, 1.7644e-005
 798.14300,230.79116, 1.0915e-002, 1.6015e-005
 798.64300,231.01484, 1.0923e-002, 1.6003e-005
 799.14300,231.23731, 1.0931e-002, 1.4720e-005
 799.64300,231.45710, 1.0938e-002, 1.5393e-005
 800.14300,231.67335, 1.0945e-002, 1.4633e-005
 800.64300,231.88680, 1.0953e-002, 1.4252e-005
 801.14300,232.09909, 1.0961e-002, 1.4314e-005
 801.64300,232.31166, 1.0968e-002, 1.6546e-005
 802.14300,232.52573, 1.0976e-002, 1.5415e-005
 802.64300,232.74213, 1.0984e-002, 1.7216e-005
 803.14300,232.96211, 1.0993e-002, 1.7481e-005
 803.64300,233.18492, 1.1001e-002, 1.6985e-005
 804.14300,233.41066, 1.1010e-002, 1.7690e-005
 804.64300,233.63794, 1.1018e-002, 1.7011e-005
 805.14300,233.86555, 1.1026e-002, 1.5841e-005
 805.64300,234.09313, 1.1033e-002, 1.4184e-005
 806.14300,234.31968, 1.1040e-002, 1.3856e-005
 806.64300,234.54403, 1.1048e-002, 1.4664e-005
 807.14300,234.76546, 1.1055e-002, 1.3567e-005
 807.64300,234.98470, 1.1061e-002, 1.3877e-005
 808.14300,235.20174, 1.1068e-002, 1.3830e-005
 808.64300,235.41588, 1.1075e-002, 1.3570e-005
 809.14300,235.62722, 1.1081e-002, 1.4049e-005
 809.64300,235.83694, 1.1088e-002, 1.2959e-005
 810.14300,236.04588, 1.1095e-002, 1.2100e-005
 810.64300,236.25466, 1.1101e-002, 1.3052e-005
 811.14300,236.46218, 1.1108e-002, 1.3517e-005
 811.64300,236.66855, 1.1115e-002, 1.3829e-005
 812.14300,236.87345, 1.1122e-002, 1.3026e-005
 812.64300,237.07887, 1.1128e-002, 1.2287e-005
 813.14300,237.28441, 1.1135e-002, 1.3878e-005
 813.64300,237.49007, 1.1142e-002, 1.2736e-005
 814.14300,237.69505, 1.1149e-002, 1.3214e-005
 814.64300,237.89832, 1.1155e-002, 1.3892e-005
 815.14300,238.09916, 1.1161e-002, 1.2427e-005
 815.64300,238.29830, 1.1168e-002, 1.1988e-005
 816.14300,238.49586, 1.1174e-002, 1.2065e-005
 816.64300,238.69241, 1.1180e-002, 1.2676e-005
 817.14300,238.88838, 1.1187e-002, 1.2485e-005
 817.64300,239.08384, 1.1194e-002, 1.3376e-005
 818.14300,239.27913, 1.1200e-002, 1.3273e-005
 818.64300,239.47509, 1.1207e-002, 1.2476e-005
 819.14300,239.67151, 1.1213e-002, 1.5009e-005
 819.64300,239.86913, 1.1221e-002, 1.2709e-005
 820.14300,240.06771, 1.1228e-002, 1.4794e-005
 820.64300,240.26706, 1.1235e-002, 1.3429e-005
 821.14300,240.46671, 1.1241e-002, 1.4227e-005
 821.64300,240.66690, 1.1248e-002, 1.4322e-005
 822.14300,240.86751, 1.1255e-002, 1.3361e-005
 822.64300,241.06856, 1.1261e-002, 1.4886e-005
 823.14300,241.26990, 1.1269e-002, 1.1682e-005
 823.64300,241.47085, 1.1276e-002, 1.2775e-005
 824.14300,241.67164, 1.1282e-002, 1.4520e-005
 824.64300,241.87200, 1.1289e-002, 1.4055e-005
 825.14300,242.07186, 1.1295e-002, 1.2786e-005
 825.64300,242.27106, 1.1302e-002, 1.3202e-005
 826.14300,242.46961, 1.1309e-002, 1.3256e-005
 826.64300,242.66803, 1.1315e-002, 1.3764e-005
 827.14300,242.86657, 1.1322e-002, 1.3378e-005
 827.64300,243.06503, 1.1329e-002, 1.3834e-005
 828.14300,243.26290, 1.1336e-002, 1.2841e-005
 828.64300,243.46062, 1.1342e-002, 1.3232e-005
 829.14300,243.65757, 1.1349e-002, 1.2891e-005
 829.64300,243.85432, 1.1356e-002, 1.3880e-005
 830.14300,244.05093, 1.1362e-002, 1.2938e-005
 830.64300,244.24771, 1.1369e-002, 1.3711e-005
 831.14300,244.44485, 1.1375e-002, 1.2464e-005
 831.64300,244.64204, 1.1381e-002, 1.3777e-005
 832.14300,244.83886, 1.1388e-002, 1.3403e-005
 832.64300,245.03528, 1.1395e-002, 1.4047e-005
 833.14300,245.23148, 1.1402e-002, 1.2920e-005
 833.64300,245.42731, 1.1410e-002, 1.2873e-005
 834.14300,245.62300, 1.1415e-002, 1.3908e-005
 834.64300,245.81892, 1.1422e-002, 1.3549e-005
 835.14300,246.01447, 1.1429e-002, 1.4126e-005
 835.64300,246.20967, 1.1436e-002, 1.3756e-005
 836.14300,246.40406, 1.1443e-002, 1.3094e-005
 836.64300,246.59808, 1.1449e-002, 1.2435e-005
 837.14300,246.79195, 1.1456e-002, 1.4510e-005
 837.64300,246.98559, 1.1462e-002, 1.3008e-005
 838.14300,247.17903, 1.1470e-002, 1.2688e-005
 838.64300,247.37156, 1.1476e-002, 1.2382e-005
 839.14300,247.56390, 1.1483e-002, 1.3838e-005
 839.64300,247.75686, 1.1489e-002, 1.3866e-005
 840.14300,247.95010, 1.1496e-002, 1.3066e-005
 840.64300,248.14426, 1.1503e-002, 1.5234e-005
 841.14300,248.33870, 1.1510e-002, 1.2701e-005
 841.64300,248.53219, 1.1517e-002, 1.2428e-005
 842.14300,248.72579, 1.1523e-002, 1.2956e-005
 842.64300,248.91860, 1.1530e-002, 1.4889e-005
 843.14300,249.11105, 1.1537e-002, 1.3133e-005
 843.64300,249.30330, 1.1544e-002, 1.3342e-005
 844.14300,249.49566, 1.1550e-002, 1.3655e-005
 844.64300,249.68819, 1.1556e-002, 1.3611e-005
 845.14300,249.88094, 1.1563e-002, 1.3268e-005
 845.64300,250.07397, 1.1571e-002, 1.4136e-005
 846.14300,250.26692, 1.1577e-002, 1.3342e-005
 846.64300,250.46000, 1.1584e-002, 1.3814e-005
 847.14300,250.65223, 1.1591e-002, 1.4000e-005
 847.64300,250.84422, 1.1598e-002, 1.3868e-005
 848.14300,251.03627, 1.1605e-002, 1.2466e-005
 848.64300,251.22828, 1.1611e-002, 1.3787e-005
 849.14300,251.42065, 1.1618e-002, 1.2811e-005
 849.64300,251.61251, 1.1625e-002, 1.4397e-005
 850.14300,251.80429, 1.1632e-002, 1.2496e-005
 850.64300,251.99561, 1.1639e-002, 1.3159e-005
 851.14300,252.18656, 1.1646e-002, 1.2902e-005
 851.64300,252.37730, 1.1652e-002, 1.2846e-005
 852.14300,252.56799, 1.1659e-002, 1.4384e-005
 852.64300,252.75869, 1.1665e-002, 1.4367e-005
 853.14300,252.94929, 1.1673e-002, 1.4001e-005
 853.64300,253.14002, 1.1680e-002, 1.3307e-005
 854.14300,253.33033, 1.1687e-002, 1.4320e-005
 854.64300,253.52051, 1.1694e-002, 1.3305e-005
 855.14300,253.71199, 1.1701e-002, 1.4646e-005
 855.64300,253.90412, 1.1708e-002, 1.3937e-005
 856.14300,254.09706, 1.1715e-002, 1.4776e-005
 856.64300,254.29065, 1.1722e-002, 1.4462e-005
 857.14300,254.48420, 1.1730e-002, 1.5383e-005
 857.64300,254.67855, 1.1737e-002, 1.4477e-005
 858.14300,254.87435, 1.1744e-002, 1.3279e-005
 858.64300,255.07174, 1.1752e-002, 1.5223e-005
 859.14300,255.26889, 1.1759e-002, 1.5456e-005
 859.64300,255.46740, 1.1767e-002, 1.4782e-005
 860.14300,255.66645, 1.1774e-002, 1.5324e-005
 860.64300,255.86678, 1.1782e-002, 1.5127e-005
 861.14300,256.06888, 1.1789e-002, 1.4968e-005
 861.64300,256.27114, 1.1797e-002, 1.5634e-005
 862.14300,256.47244, 1.1804e-002, 1.4922e-005
 862.64300,256.67160, 1.1812e-002, 1.3947e-005
 863.14300,256.86837, 1.1819e-002, 1.3729e-005
 863.64300,257.06365, 1.1826e-002, 1.3351e-005
 864.14300,257.25787, 1.1832e-002, 1.4464e-005
 864.64300,257.45155, 1.1840e-002, 1.3626e-005
 865.14300,257.64470, 1.1846e-002, 1.2305e-005
 865.64300,257.83734, 1.1853e-002, 1.5269e-005
 866.14300,258.02916, 1.1859e-002, 1.2667e-005
 866.64300,258.22015, 1.1866e-002, 1.4757e-005
 867.14300,258.41041, 1.1873e-002, 1.2542e-005
 867.64300,258.60008, 1.1880e-002, 1.3358e-005
 868.14300,258.78880, 1.1887e-002, 1.3282e-005
 868.64300,258.97652, 1.1893e-002, 1.3473e-005
 869.14300,259.16450, 1.1900e-002, 1.3501e-005
 869.64300,259.35260, 1.1906e-002, 1.3193e-005
 870.14300,259.54045, 1.1913e-002, 1.3810e-005
 870.64300,259.72994, 1.1920e-002, 1.3558e-005
 871.14300,259.91864, 1.1926e-002, 1.3260e-005
 871.64300,260.10789, 1.1934e-002, 1.3620e-005
 872.14300,260.29805, 1.1940e-002, 1.2409e-005
 872.64300,260.48800, 1.1948e-002, 1.4332e-005
 873.14300,260.67886, 1.1954e-002, 1.3367e-005
 873.64300,260.87017, 1.1961e-002, 1.2370e-005
 874.14300,261.06133, 1.1968e-002, 1.2539e-005
 874.64300,261.25383, 1.1975e-002, 1.2670e-005
 875.14300,261.44681, 1.1982e-002, 1.3456e-005
 875.64300,261.64052, 1.1989e-002, 1.3931e-005
 876.14300,261.83373, 1.1995e-002, 1.3279e-005
 876.64300,262.02769, 1.2002e-002, 1.2600e-005
 877.14300,262.22125, 1.2009e-002, 1.2610e-005
 877.64300,262.41306, 1.2016e-002, 1.3971e-005
 878.14300,262.60101, 1.2023e-002, 1.2427e-005
 878.64300,262.78253, 1.2028e-002, 9.8564e-006
 879.14300,262.95950, 1.2034e-002, 1.1865e-005
 879.64300,263.13333, 1.2038e-002, 1.1064e-005
 880.14300,263.30586, 1.2045e-002, 1.3337e-005
 880.64300,263.48005, 1.2051e-002, 1.3658e-005
 881.14300,263.65731, 1.2058e-002, 1.4621e-005
 881.64300,263.83885, 1.2066e-002, 1.5552e-005
 882.14300,264.02620, 1.2074e-002, 1.6149e-005
 882.64300,264.21841, 1.2081e-002, 1.6510e-005
 883.14300,264.41459, 1.2089e-002, 1.5056e-005
 883.64300,264.61493, 1.2097e-002, 1.4483e-005
 884.14300,264.81650, 1.2105e-002, 1.4924e-005
 884.64300,265.01877, 1.2112e-002, 1.4061e-005
 885.14300,265.22041, 1.2118e-002, 1.4570e-005
 885.64300,265.42023, 1.2125e-002, 1.4129e-005
 886.14300,265.61927, 1.2132e-002, 1.2557e-005
 886.64300,265.81721, 1.2139e-002, 1.3755e-005
 887.14300,266.01483, 1.2145e-002, 1.2181e-005
 887.64300,266.21107, 1.2152e-002, 1.4019e-005
 888.14300,266.40668, 1.2159e-002, 1.3049e-005
 888.64300,266.60240, 1.2165e-002, 1.4539e-005
 889.14300,266.79791, 1.2172e-002, 1.5903e-005
 889.64300,266.99440, 1.2179e-002, 1.3819e-005
 890.14300,267.19071, 1.2187e-002, 1.3529e-005
 890.64300,267.38978, 1.2194e-002, 1.3400e-005
 891.14300,267.58996, 1.2201e-002, 1.4150e-005
 891.64300,267.79131, 1.2208e-002, 1.3041e-005
 892.14300,267.99295, 1.2215e-002, 1.2000e-005
 892.64300,268.19404, 1.2222e-002, 1.4828e-005
 893.14300,268.39590, 1.2229e-002, 1.4027e-005
 893.64300,268.59772, 1.2236e-002, 1.4238e-005
 894.14300,268.80013, 1.2243e-002, 1.4498e-005
 894.64300,269.00251, 1.2250e-002, 1.5146e-005
 895.14300,269.20389, 1.2257e-002, 1.2167e-005
 895.64300,269.40580, 1.2264e-002, 1.3239e-005
 896.14300,269.60786, 1.2271e-002, 1.4696e-005
 896.64300,269.81064, 1.2278e-002, 1.4117e-005
 897.14300,270.01334, 1.2285e-002, 1.2524e-005
 897.64300,270.21578, 1.2291e-002, 1.4435e-005
 898.14300,270.41755, 1.2299e-002, 1.3878e-005
 898.64300,270.61963, 1.2306e-002, 1.2713e-005
 899.14300,270.82205, 1.2313e-002, 1.3779e-005
 899.64300,271.02703, 1.2321e-002, 1.3318e-005
 900.14300,271.23323, 1.2327e-002, 1.5391e-005
 900.64300,271.44206, 1.2335e-002, 1.4391e-005
 901.14300,271.65114, 1.2342e-002, 1.3950e-005
 901.64300,271.86023, 1.2348e-002, 1.3653e-005
 902.14300,272.06872, 1.2355e-002, 1.4703e-005
 902.64300,272.27575, 1.2363e-002, 1.3492e-005
 903.14300,272.48264, 1.2369e-002, 1.5677e-005
 903.64300,272.68917, 1.2376e-002, 1.2671e-005
 904.14300,272.89574, 1.2383e-002, 1.3967e-005
 904.64300,273.10332, 1.2390e-002, 1.3562e-005
 905.14300,273.31204, 1.2397e-002, 1.4681e-005
 905.64300,273.52326, 1.2404e-002, 1.2871e-005
 906.14300,273.74261, 1.2412e-002, 1.3597e-005
 906.64300,273.97582, 1.2419e-002, 1.8403e-005
 907.14300,274.22913, 1.2429e-002, 1.9435e-005
 907.64300,274.49402, 1.2439e-002, 1.7235e-005
 908.14300,274.75639, 1.2447e-002, 1.3868e-005
 908.64300,275.00433, 1.2454e-002, 1.3910e-005
 909.14300,275.23891, 1.2461e-002, 1.2400e-005
 909.64300,275.46224, 1.2467e-002, 1.4115e-005
 910.14300,275.68044, 1.2473e-002, 1.2215e-005
 910.64300,275.89621, 1.2480e-002, 1.3641e-005
 911.14300,276.11474, 1.2488e-002, 1.6250e-005
 911.64300,276.33661, 1.2496e-002, 1.8304e-005
 912.14300,276.56659, 1.2505e-002, 1.7592e-005
 912.64300,276.80398, 1.2513e-002, 1.7149e-005
 913.14300,277.05263, 1.2522e-002, 1.8899e-005
 913.64300,277.31064, 1.2531e-002, 1.7092e-005
 914.14300,277.58152, 1.2540e-002, 1.7035e-005
 914.64300,277.86991, 1.2550e-002, 1.9871e-005
 915.14300,278.18728, 1.2561e-002, 2.4747e-005
 915.64300,278.53539, 1.2572e-002, 2.0145e-005
 916.14300,278.87205, 1.2579e-002, 9.0164e-006
 916.64300,279.16569, 1.2583e-002, 6.9750e-006
 917.14300,279.42158, 1.2587e-002, 5.7288e-006
 917.64300,279.65313, 1.2591e-002, 7.6248e-006
 918.14300,279.86764, 1.2596e-002, 9.6520e-006
 918.64300,280.07154, 1.2600e-002, 8.3950e-006
 919.14300,280.26755, 1.2605e-002, 1.1493e-005
 919.64300,280.46070, 1.2611e-002, 1.1132e-005
 920.14300,280.65186, 1.2617e-002, 1.2360e-005
 920.64300,280.84153, 1.2623e-002, 1.0638e-005
 921.14300,281.03259, 1.2629e-002, 1.1841e-005
 921.64300,281.22305, 1.2634e-002, 1.3967e-005
 922.14300,281.41497, 1.2641e-002, 1.1236e-005
 922.64300,281.60737, 1.2647e-002, 1.2252e-005
 923.14300,281.79929, 1.2653e-002, 1.0983e-005
 923.64300,281.99020, 1.2659e-002, 1.3219e-005
 924.14300,282.18073, 1.2666e-002, 1.2386e-005
 924.64300,282.36896, 1.2673e-002, 1.2947e-005
 925.14300,282.55620, 1.2679e-002, 1.1549e-005
 925.64300,282.74062, 1.2684e-002, 1.1132e-005
 926.14300,282.92335, 1.2690e-002, 1.0675e-005
 926.64300,283.10522, 1.2696e-002, 1.0871e-005
 927.14300,283.28650, 1.2701e-002, 1.2546e-005
 927.64300,283.47057, 1.2708e-002, 1.3094e-005
 928.14300,283.65636, 1.2715e-002, 1.3571e-005
 928.64300,283.84523, 1.2721e-002, 1.3690e-005
 929.14300,284.03813, 1.2729e-002, 1.6539e-005
 929.64300,284.23462, 1.2736e-002, 1.3181e-005
 930.14300,284.43512, 1.2742e-002, 1.4715e-005
 930.64300,284.63834, 1.2750e-002, 1.4163e-005
 931.14300,284.84287, 1.2756e-002, 1.2580e-005
 931.64300,285.04612, 1.2763e-002, 1.2070e-005
 932.14300,285.24701, 1.2769e-002, 1.1270e-005
 932.64300,285.44405, 1.2775e-002, 1.2176e-005
 933.14300,285.63629, 1.2780e-002, 1.0404e-005
 933.64300,285.82562, 1.2786e-002, 1.2260e-005
 934.14300,286.01173, 1.2792e-002, 1.2007e-005
 934.64300,286.19659, 1.2797e-002, 1.2744e-005
 935.14300,286.38202, 1.2804e-002, 1.2456e-005
 935.64300,286.56838, 1.2810e-002, 1.3142e-005
 936.14300,286.75738, 1.2817e-002, 1.3611e-005
 936.64300,286.94914, 1.2823e-002, 1.4849e-005
 937.14300,287.14285, 1.2831e-002, 1.4222e-005
 937.64300,287.33959, 1.2838e-002, 1.6016e-005
 938.14300,287.53884, 1.2846e-002, 1.3049e-005
 938.64300,287.74079, 1.2852e-002, 1.2094e-005
 939.14300,287.94416, 1.2859e-002, 1.3308e-005
 939.64300,288.14852, 1.2865e-002, 1.2860e-005
 940.14300,288.35055, 1.2871e-002, 1.1839e-005
 940.64300,288.55013, 1.2878e-002, 1.2404e-005
 941.14300,288.74670, 1.2884e-002, 1.2805e-005
 941.64300,288.93916, 1.2890e-002, 1.2321e-005
 942.14300,289.12992, 1.2896e-002, 1.2909e-005
 942.64300,289.31784, 1.2902e-002, 1.0881e-005
 943.14300,289.50344, 1.2908e-002, 1.3428e-005
 943.64300,289.68771, 1.2914e-002, 1.2427e-005
 944.14300,289.87078, 1.2921e-002, 1.2358e-005
 944.64300,290.05487, 1.2927e-002, 1.1919e-005
 945.14300,290.24050, 1.2934e-002, 1.3751e-005
 945.64300,290.42747, 1.2940e-002, 1.4924e-005
 946.14300,290.61502, 1.2947e-002, 1.3108e-005
 946.64300,290.80177, 1.2953e-002, 1.3876e-005
 947.14300,290.98776, 1.2960e-002, 1.2496e-005
 947.64300,291.17368, 1.2967e-002, 1.3990e-005
 948.14300,291.35976, 1.2973e-002, 1.2974e-005
 948.64300,291.54577, 1.2980e-002, 1.4213e-005
 949.14300,291.73189, 1.2987e-002, 1.2945e-005
 949.64300,291.91851, 1.2994e-002, 1.4834e-005
 950.14300,292.10565, 1.3001e-002, 1.4735e-005
 950.64300,292.29472, 1.3008e-002, 1.4238e-005
 951.14300,292.48543, 1.3015e-002, 1.4805e-005
 951.64300,292.67871, 1.3023e-002, 1.3834e-005
 952.14300,292.87509, 1.3030e-002, 1.4573e-005
 952.64300,293.07271, 1.3038e-002, 1.5408e-005
 953.14300,293.27060, 1.3045e-002, 1.5117e-005
 953.64300,293.46756, 1.3053e-002, 1.3847e-005
 954.14300,293.66393, 1.3060e-002, 1.3921e-005
 954.64300,293.86001, 1.3067e-002, 1.3847e-005
 955.14300,294.05470, 1.3074e-002, 1.3920e-005
 955.64300,294.24742, 1.3080e-002, 1.3510e-005
 956.14300,294.43810, 1.3087e-002, 1.2224e-005
 956.64300,294.62717, 1.3093e-002, 1.2756e-005
 957.14300,294.81629, 1.3099e-002, 1.0663e-005
 957.64300,295.00443, 1.3106e-002, 1.3794e-005
 958.14300,295.19181, 1.3112e-002, 1.3587e-005
 958.64300,295.37935, 1.3119e-002, 1.2840e-005
 959.14300,295.56621, 1.3125e-002, 1.3344e-005
 959.64300,295.75390, 1.3132e-002, 1.3164e-005
 960.14300,295.94114, 1.3138e-002, 1.1725e-005
 960.64300,296.12747, 1.3145e-002, 1.2928e-005
 961.14300,296.31372, 1.3151e-002, 1.2447e-005
 961.64300,296.49941, 1.3157e-002, 1.3488e-005
 962.14300,296.68499, 1.3164e-002, 1.3144e-005
 962.64300,296.86975, 1.3171e-002, 1.2047e-005
 963.14300,297.05349, 1.3177e-002, 1.3251e-005
 963.64300,297.23660, 1.3183e-002, 1.2359e-005
 964.14300,297.41892, 1.3190e-002, 1.3143e-005
 964.64300,297.60077, 1.3196e-002, 1.3233e-005
 965.14300,297.78197, 1.3203e-002, 1.1827e-005
 965.64300,297.96290, 1.3209e-002, 1.3191e-005
 966.14300,298.14391, 1.3216e-002, 1.2800e-005
 966.64300,298.32530, 1.3222e-002, 1.4080e-005
 967.14300,298.50612, 1.3228e-002, 1.2868e-005
 967.64300,298.68587, 1.3234e-002, 1.1706e-005
 968.14300,298.86435, 1.3241e-002, 1.3639e-005
 968.64300,299.04155, 1.3248e-002, 1.2721e-005
 969.14300,299.21842, 1.3254e-002, 1.3437e-005
 969.64300,299.39575, 1.3261e-002, 1.2683e-005
 970.14300,299.57440, 1.3268e-002, 1.2515e-005
 970.64300,299.75445, 1.3274e-002, 1.3903e-005
 971.14300,299.93745, 1.3282e-002, 1.2995e-005
 971.64300,300.12316, 1.3289e-002, 1.5415e-005
 972.14300,300.31232, 1.3297e-002, 1.4730e-005
 972.64300,300.50322, 1.3303e-002, 1.3352e-005
 973.14300,300.69314, 1.3310e-002, 1.3808e-005
 973.64300,300.88150, 1.3316e-002, 1.1555e-005
 974.14300,301.06769, 1.3323e-002, 1.2010e-005
 974.64300,301.25213, 1.3329e-002, 1.3147e-005
 975.14300,301.43619, 1.3336e-002, 1.1503e-005
 975.64300,301.61868, 1.3342e-002, 1.3005e-005
 976.14300,301.79990, 1.3348e-002, 1.2622e-005
 976.64300,301.98113, 1.3356e-002, 1.4045e-005
 977.14300,302.16224, 1.3362e-002, 1.4241e-005
 977.64300,302.34478, 1.3369e-002, 1.2866e-005
 978.14300,302.52629, 1.3375e-002, 1.4350e-005
 978.64300,302.70800, 1.3382e-002, 1.1848e-005
 979.14300,302.88888, 1.3389e-002, 1.2610e-005
 979.64300,303.06933, 1.3395e-002, 1.3913e-005
 980.14300,303.25187, 1.3402e-002, 1.3818e-005
 980.64300,303.43418, 1.3409e-002, 1.3513e-005
 981.14300,303.61824, 1.3416e-002, 1.2719e-005
 981.64300,303.80412, 1.3423e-002, 1.3709e-005
 982.14300,303.99262, 1.3430e-002, 1.3339e-005
 982.64300,304.18380, 1.3437e-002, 1.5214e-005
 983.14300,304.37883, 1.3445e-002, 1.4038e-005
 983.64300,304.57378, 1.3452e-002, 1.4734e-005
 984.14300,304.76731, 1.3459e-002, 1.4208e-005
 984.64300,304.95774, 1.3465e-002, 1.3148e-005
 985.14300,305.14298, 1.3472e-002, 1.1134e-005
 985.64300,305.32525, 1.3478e-002, 1.1758e-005
 986.14300,305.50533, 1.3484e-002, 1.2573e-005
 986.64300,305.68365, 1.3491e-002, 1.3171e-005
 987.14300,305.86024, 1.3497e-002, 1.1897e-005
 987.64300,306.03665, 1.3503e-002, 1.2497e-005
 988.14300,306.21339, 1.3510e-002, 1.5110e-005
 988.64300,306.39100, 1.3517e-002, 1.3620e-005
 989.14300,306.57177, 1.3524e-002, 1.5196e-005
 989.64300,306.75487, 1.3532e-002, 1.3860e-005
 990.14300,306.94001, 1.3539e-002, 1.3486e-005
 990.64300,307.12669, 1.3546e-002, 1.4106e-005
 991.14300,307.31490, 1.3553e-002, 1.4028e-005
 991.64300,307.50338, 1.3560e-002, 1.4618e-005
 992.14300,307.69224, 1.3567e-002, 1.3021e-005
 992.64300,307.88203, 1.3574e-002, 1.3603e-005
 993.14300,308.07118, 1.3580e-002, 1.4287e-005
 993.64300,308.25927, 1.3588e-002, 1.3187e-005
 994.14300,308.44509, 1.3594e-002, 1.3063e-005
 994.64300,308.62734, 1.3600e-002, 1.2612e-005
 995.14300,308.80702, 1.3607e-002, 1.2843e-005
 995.64300,308.98363, 1.3612e-002, 1.3211e-005
 996.14300,309.15858, 1.3619e-002, 1.2513e-005
 996.64300,309.33391, 1.3626e-002, 1.4431e-005
 997.14300,309.50984, 1.3632e-002, 1.3746e-005
 997.64300,309.68977, 1.3640e-002, 1.4209e-005
 998.14300,309.87388, 1.3648e-002, 1.7301e-005
 998.64300,310.06199, 1.3656e-002, 1.5725e-005
 999.14300,310.25460, 1.3663e-002, 1.5545e-005
 999.64300,310.44978, 1.3672e-002, 1.6924e-005
1000.14300,310.64657, 1.3680e-002, 1.5588e-005
1000.64300,310.84345, 1.3687e-002, 1.5069e-005
1001.14300,311.03836, 1.3694e-002, 1.3222e-005
1001.64300,311.23148, 1.3701e-002, 1.4095e-005
1002.14300,311.42300, 1.3708e-002, 1.3947e-005
1002.64300,311.61358, 1.3716e-002, 1.4514e-005
1003.14300,311.80437, 1.3722e-002, 1.3895e-005
1003.64300,311.99487, 1.3730e-002, 1.4833e-005
1004.14300,312.18501, 1.3737e-002, 1.5398e-005
1004.64300,312.37464, 1.3745e-002, 1.2901e-005
1005.14300,312.56323, 1.3751e-002, 1.4128e-005
1005.64300,312.75099, 1.3758e-002, 1.4786e-005
1006.14300,312.93832, 1.3765e-002, 1.2787e-005
1006.64300,313.12485, 1.3771e-002, 1.4114e-005
1007.14300,313.31030, 1.3779e-002, 1.4977e-005
1007.64300,313.49494, 1.3785e-002, 1.2778e-005
1008.14300,313.67864, 1.3792e-002, 1.3612e-005
1008.64300,313.86187, 1.3798e-002, 1.3382e-005
1009.14300,314.04458, 1.3805e-002, 1.3362e-005
1009.64300,314.22700, 1.3812e-002, 1.3843e-005
1010.14300,314.40902, 1.3818e-002, 1.3762e-005
1010.64300,314.59022, 1.3825e-002, 1.3205e-005
1011.14300,314.77032, 1.3832e-002, 1.3703e-005
1011.64300,314.95010, 1.3838e-002, 1.4073e-005
1012.14300,315.12800, 1.3845e-002, 1.2260e-005
1012.64300,315.30590, 1.3851e-002, 1.3026e-005
1013.14300,315.48518, 1.3858e-002, 1.3255e-005
1013.64300,315.66460, 1.3865e-002, 1.4345e-005
1014.14300,315.84492, 1.3872e-002, 1.4009e-005
1014.64300,316.02581, 1.3878e-002, 1.3830e-005
1015.14300,316.20596, 1.3886e-002, 1.4350e-005
1015.64300,316.38631, 1.3892e-002, 1.2702e-005
1016.14300,316.56798, 1.3899e-002, 1.3536e-005
1016.64300,316.74993, 1.3906e-002, 1.3683e-005
1017.14300,316.93237, 1.3913e-002, 1.3855e-005
1017.64300,317.11534, 1.3919e-002, 1.2498e-005
1018.14300,317.29847, 1.3926e-002, 1.2629e-005
1018.64300,317.48247, 1.3933e-002, 1.4538e-005
1019.14300,317.66719, 1.3940e-002, 1.2914e-005
1019.64300,317.85270, 1.3947e-002, 1.4672e-005
1020.14300,318.03889, 1.3954e-002, 1.3863e-005
1020.64300,318.22607, 1.3961e-002, 1.2737e-005
1021.14300,318.41384, 1.3968e-002, 1.3748e-005
1021.64300,318.60243, 1.3975e-002, 1.2620e-005
1022.14300,318.79147, 1.3981e-002, 1.3336e-005
1022.64300,318.98080, 1.3988e-002, 1.3928e-005
1023.14300,319.16985, 1.3995e-002, 1.3200e-005
1023.64300,319.35839, 1.4001e-002, 1.3410e-005
1024.14300,319.54549, 1.4008e-002, 1.3929e-005
1024.64300,319.73028, 1.4015e-002, 1.2720e-005
1025.14300,319.91292, 1.4021e-002, 1.2829e-005
1025.64300,320.09446, 1.4027e-002, 1.3372e-005
1026.14300,320.27664, 1.4035e-002, 1.4667e-005
1026.64300,320.46099, 1.4042e-002, 1.5245e-005
1027.14300,320.64922, 1.4049e-002, 1.5042e-005
1027.64300,320.83952, 1.4056e-002, 1.2159e-005
1028.14300,321.03186, 1.4063e-002, 1.4964e-005
1028.64300,321.22438, 1.4070e-002, 1.4121e-005
1029.14300,321.41557, 1.4077e-002, 1.2326e-005
1029.64300,321.60683, 1.4084e-002, 1.3731e-005
1030.14300,321.79694, 1.4090e-002, 1.3270e-005
1030.64300,321.98672, 1.4097e-002, 1.1776e-005
1031.14300,322.17682, 1.4103e-002, 1.4275e-005
1031.64300,322.36649, 1.4111e-002, 1.5546e-005
1032.14300,322.55522, 1.4118e-002, 1.3207e-005
1032.64300,322.74077, 1.4124e-002, 1.2665e-005
1033.14300,322.92372, 1.4130e-002, 1.0995e-005
1033.64300,323.10422, 1.4136e-002, 1.1876e-005
1034.14300,323.28525, 1.4142e-002, 1.3144e-005
1034.64300,323.46762, 1.4150e-002, 1.5359e-005
1035.14300,323.65123, 1.4157e-002, 1.2673e-005
1035.64300,323.83595, 1.4163e-002, 1.4547e-005
1036.14300,324.02065, 1.4170e-002, 1.4651e-005
1036.64300,324.20644, 1.4177e-002, 1.3634e-005
1037.14300,324.39437, 1.4184e-002, 1.3345e-005
1037.64300,324.58314, 1.4191e-002, 1.2055e-005
1038.14300,324.77288, 1.4198e-002, 1.4217e-005
1038.64300,324.96368, 1.4205e-002, 1.3664e-005
1039.14300,325.15475, 1.4211e-002, 1.3649e-005
1039.64300,325.34712, 1.4218e-002, 1.4341e-005
1040.14300,325.54061, 1.4226e-002, 1.5656e-005
1040.64300,325.73434, 1.4232e-002, 1.2703e-005
1041.14300,325.92844, 1.4239e-002, 1.3222e-005
1041.64300,326.12101, 1.4246e-002, 1.3693e-005
1042.14300,326.31259, 1.4252e-002, 1.3235e-005
1042.64300,326.50323, 1.4258e-002, 1.2129e-005
1043.14300,326.69306, 1.4266e-002, 1.4415e-005
1043.64300,326.88321, 1.4273e-002, 1.5252e-005
1044.14300,327.07312, 1.4280e-002, 1.5108e-005
1044.64300,327.26147, 1.4288e-002, 1.4272e-005
1045.14300,327.44599, 1.4294e-002, 1.2555e-005
1045.64300,327.62553, 1.4300e-002, 1.1146e-005
1046.14300,327.80122, 1.4306e-002, 1.2207e-005
1046.64300,327.97450, 1.4312e-002, 1.3680e-005
1047.14300,328.14786, 1.4319e-002, 1.5361e-005
1047.64300,328.32291, 1.4327e-002, 1.4973e-005
1048.14300,328.50125, 1.4334e-002, 1.5903e-005
1048.64300,328.68354, 1.4342e-002, 1.5509e-005
1049.14300,328.86987, 1.4350e-002, 1.5165e-005
1049.64300,329.06160, 1.4358e-002, 1.5721e-005

