Temp./°C,Time/min,dL/Lo,Certificate,Standard,Corrected,delT,EngAlpha,Fitted,Alpha,Poly5,SplFit,TightSpl
21.351,0.0,1.39e-05,7.23e-05,-0.000419695,0.000505889,0.0,inf,0.000304610619213796,-2.27e-06,0.00012147364574542586,6.63703513079939e-05,0.0005032986024638384
21.851,3.9921699999999998,-3.19e-06,7.509999999999998e-05,-0.000411966,0.00048386800000000004,0.5,0.0009677360000000001,0.00030348095579482703,-2.24e-06,0.00012309516370054372,6.762666954056025e-05,0.00048678335349878994
22.351,4.37447,-1.4400000000000001e-05,7.79e-05,-0.00040423300000000004,0.000467733,1.0,0.000467733,0.00030236600460919853,-2.22e-06,0.00012471209702565565,6.888694157216569e-05,0.00047099526161523483
22.851,4.64006,-2.34e-05,8.070000000000001e-05,-0.000396497,0.000453846,1.5,0.000302564,0.00030126574074318705,-2.19e-06,0.00012632449818794677,7.015116765501723e-05,0.00045591436832987406
23.351,4.8554900000000005,-3.18e-05,8.35e-05,-0.000388756,0.00044054900000000004,2.0,0.000220275,0.0003001801393083159,-2.16e-06,0.00012793241950521126,7.141934804132178e-05,0.0004415207151594087
23.851,5.04219,-3.98e-05,8.640000000000001e-05,-0.00038101300000000003,0.000427546,2.5,0.000171018,0.00029910917544134514,-2.13e-06,0.0001295359131460315,7.269148298328634e-05,0.0004277943436205397
24.351,5.21024,-4.6399999999999996e-05,8.92e-05,-0.000373265,0.000416026,3.0,0.000138675,0.00029805282430427895,-2.1e-06,0.00013113503112994855,7.396757273311785e-05,0.0004147152952299682
24.851,5.36457,-5.5e-05,9.2e-05,-0.000365514,0.000402555,3.5,0.000115016,0.00029701106108436263,-2.07e-06,0.00013272982532764157,7.524761754302328e-05,0.000402263611504395
25.351,5.50896,-6.12e-05,9.49e-05,-0.00035775900000000003,0.000391369,4.0,9.779999999999999e-05,0.0002959838609940834,-2.04e-06,0.0001343203474611014,7.653161766520959e-05,0.0003904193339605213
25.851,5.6455800000000025,-6.7e-05,9.77e-05,-0.000350001,0.000380655,4.5,8.46e-05,0.00029497119927116965,-2.01e-06,0.0001359066491038053,7.78195733518837e-05,0.0003791625041150481
26.351,5.7758,-7.219999999999999e-05,0.000100531,-0.000342238,0.00037057699999999997,5.0,7.41e-05,0.0002939730511785925,-1.98e-06,0.00013748878168089217,7.911148485525264e-05,0.00036847316348467645
26.851,5.90102,-7.7e-05,0.00010337299999999999,-0.000334473,0.00036088,5.5,6.56e-05,0.00029298939200456337,-1.95e-06,0.00013906679646934076,8.040735242752329e-05,0.0003583313535861072
27.351,6.0224699999999975,-8.209999999999999e-05,0.00010621799999999999,-0.000326703,0.000350804,6.0,5.85e-05,0.0002920201970625356,-1.92e-06,0.00014064074459813926,8.170717632090266e-05,0.0003487171159360415
27.851,6.14044,-8.63e-05,0.000109067,-0.00031893,0.000341715,6.5,5.260000000000001e-05,0.00029106544169120495,-1.9e-06,0.00014221067704846485,8.301095678759767e-05,0.00033961049205118036
28.351,6.25585,-8.99e-05,0.000111919,-0.000311153,0.00033320699999999997,7.0,4.760000000000001e-05,0.0002901251012545087,-1.87e-06,0.00014377664465385978,8.431869407981531e-05,0.0003309915234482247
28.851,6.36941,-9.290000000000001e-05,0.000114774,-0.000303373,0.000325258,7.5,4.34e-05,0.0002891991511416248,-1.84e-06,0.00014533869810040307,8.563038844976255e-05,0.00032284025164387573
29.351,6.48119,-9.640000000000001e-05,0.000117632,-0.000295589,0.000316851,8.0,3.96e-05,0.00028828756676697355,-1.81e-06,0.00014689688792688662,8.694604014964632e-05,0.0003151367181548343
29.851,6.59155,-9.93e-05,0.00012049299999999999,-0.00028780200000000003,0.000309039,8.5,3.64e-05,0.0002873903235702173,-1.78e-06,0.00014845126452499302,8.826564943167358e-05,0.0003078609644978015
30.351,6.7005300000000005,-0.00010161,0.00012335700000000002,-0.000280011,0.000301758,9.0,3.35e-05,0.00028650739701625936,-1.75e-06,0.0001500018781394677,8.95892165480513e-05,0.0003009930321894783
30.851,6.8087100000000005,-0.00010319,0.000126225,-0.000272216,0.000295251,9.5,3.11e-05,0.0002856387625952447,-1.72e-06,0.00015154877886829673,9.091674175098645e-05,0.0002945129627465657
31.351,6.91626,-0.0001048,0.000129096,-0.000264418,0.000288713,10.0,2.8899999999999998e-05,0.00028478439582256066,-1.69e-06,0.00015309201666287818,9.224822529268596e-05,0.00028840079768576495
31.851,7.02302,-0.00010663,0.00013197,-0.000256616,0.000281955,10.5,2.6899999999999997e-05,0.00028394427223883516,-1.67e-06,0.00015463164132820464,9.358366742535679e-05,0.0002826365785237767
32.351,7.128989999999999,-0.00010733,0.000134847,-0.00024881,0.000276327,11.0,2.51e-05,0.00028311836740993945,-1.64e-06,0.00015616770252302892,9.492306840120594e-05,0.00027720034677730226
32.851,7.23488,-0.0001079,0.000137727,-0.000241001,0.000270828,11.5,2.36e-05,0.00028230665692698413,-1.61e-06,0.00015770024976004618,9.626642847244031e-05,0.0002720721439630425
33.351,7.3404300000000005,-0.00010805,0.000140611,-0.00023318900000000002,0.000265749,12.0,2.2100000000000002e-05,0.0002815091164063239,-1.58e-06,0.00015922933240606913,9.761374789126689e-05,0.0002672320115976985
33.851,7.44578,-0.00010774,0.000143497,-0.000225372,0.00026113,12.5,2.09e-05,0.0002807257214895529,-1.55e-06,0.0001607549996821985,9.896502690989263e-05,0.00026265999119797113
34.351,7.5506600000000015,-0.00010758,0.00014638700000000002,-0.000217553,0.00025636,13.0,1.9699999999999998e-05,0.0002799564478435084,-1.52e-06,0.00016227730066400124,0.00010032026578052452,0.0002583361242805617
34.851,7.655419999999999,-0.00010740000000000001,0.00014928,-0.00020973,0.00025161,13.5,1.86e-05,0.0002792012711602685,-1.5e-06,0.00016379628428168794,0.00010167946475536948,0.000254240452362171
35.351,7.760219999999999,-0.00010624,0.00015217600000000001,-0.000201903,0.000247839,14.0,1.77e-05,0.0002784601671571535,-1.47e-06,0.00016531199932028366,0.00010304262408663448,0.00025035301695950003
35.851,7.86499,-0.00010526,0.000155075,-0.00019407299999999998,0.000243888,14.5,1.6800000000000002e-05,0.00027773311157672535,-1.44e-06,0.0001668244944198062,0.00010440974402652649,0.00024665385958925
36.351,7.96935,-0.0001042,0.000157978,-0.00018623900000000002,0.000240016,15.0,1.6e-05,0.00027702008018678755,-1.41e-06,0.00016833381807543953,0.00010578082482725246,0.00024312302176812177
36.851,8.074119999999999,-0.0001026,0.00016088299999999998,-0.000178402,0.000236685,15.5,1.53e-05,0.0002763210487803846,-1.38e-06,0.0001698400186377117,0.00010715586674101933,0.00023974054501281635
37.351,8.17866,-0.00010092,0.000163792,-0.00017056099999999998,0.00023343299999999999,16.0,1.4599999999999999e-05,0.0002756359931758035,-1.36e-06,0.0001713431443126673,0.00010853487002003411,0.00023648647084003487
37.851,8.28324,-9.91e-05,0.00016670400000000002,-0.000162716,0.00023037,16.5,1.4000000000000001e-05,0.0002749648892165727,-1.33e-06,0.00017284324316204193,0.00010991783491650369,0.00023334387804458138
38.351,8.38786,-9.719999999999999e-05,0.000169618,-0.000154869,0.000227323,17.0,1.34e-05,0.00027430771277146175,-1.3e-06,0.00017434036310344384,0.00011130476168263506,0.0002303079945336726
38.851,8.4922,-9.520000000000001e-05,0.000172536,-0.00014701700000000002,0.00022433099999999998,17.5,1.28e-05,0.0002736644397344835,-1.27e-06,0.0001758345519105196,0.0001126956505706352,0.00022737708549262816
39.351,8.59657,-9.259999999999999e-05,0.000175458,-0.00013916299999999998,0.00022203200000000002,18.0,1.23e-05,0.00027303504602488966,-1.24e-06,0.0001773258572131363,0.00011409050183271106,0.00022454941610676782
39.851,8.70094,-8.97e-05,0.00017838200000000001,-0.000131304,0.000219985,18.5,1.1900000000000001e-05,0.0002724195075871766,-1.22e-06,0.00017881432649755622,0.00011548931572106959,0.00022182325156141133
40.351,8.80518,-8.71e-05,0.00018130900000000002,-0.000123443,0.000217685,19.0,1.15e-05,0.0002718178003910795,-1.19e-06,0.00018030000710660956,0.00011689209248791775,0.00021919685704187844
40.851,8.90943,-8.43e-05,0.00018424,-0.000115578,0.00021547599999999998,19.5,1.11e-05,0.0002712299004315787,-1.16e-06,0.00018178294623986914,0.00011829883238546246,0.00021666849773348894
41.351000000000006,9.0135,-8.149999999999999e-05,0.000187173,-0.000107709,0.000213364,20.0,1.07e-05,0.00027065578372889197,-1.13e-06,0.00018326319095382992,0.00011970953566591076,0.0002142364388215624
41.851000000000006,9.117180000000001,-7.85e-05,0.00019011,-9.98e-05,0.000211495,20.5,1.0300000000000001e-05,0.00027009542632848264,-1.11e-06,0.00018474078816208038,0.00012112420258146953,0.0002118989454914188
42.351000000000006,9.22073,-7.509999999999998e-05,0.00019305,-9.2e-05,0.000209908,21.0,1e-05,0.00026954880430105337,-1.08e-06,0.00018621578463547898,0.00012254283338434578,0.00020965428292837778
42.851000000000006,9.32392,-7.209999999999999e-05,0.000195993,-8.41e-05,0.000207962,21.5,9.67e-06,0.0002690158937425479,-1.05e-06,0.00018768822700232892,0.00012396542832674644,0.00020750071631775894
43.351000000000006,9.42709,-6.87e-05,0.00019893900000000005,-7.62e-05,0.000206405,22.0,9.38e-06,0.00026849667077415455,-1.02e-06,0.00018915816174855642,0.00012539198766087846,0.0002054365108448822
43.851000000000006,9.52999,-6.56e-05,0.000201888,-6.829999999999999e-05,0.00020459099999999998,22.5,9.09e-06,0.0002679911115423001,-9.97e-07,0.00019062563521787942,0.00012682251163894889,0.00020345993169506728
44.351000000000006,9.63251,-6.21e-05,0.00020484,-6.04e-05,0.00020321,23.0,8.84e-06,0.0002674991922186555,-9.7e-07,0.00019209069361199012,0.00012825700051316452,0.0002015692440536339
44.851000000000006,9.7348,-5.85e-05,0.000207795,-5.25e-05,0.000201794,23.5,8.59e-06,0.0002670208890001315,-9.43e-07,0.0001935533829907259,0.00012969545453573247,0.00019976271310590178
45.351000000000006,9.83683,-5.550000000000003e-05,0.000210754,-4.46e-05,0.000199912,24.0,8.33e-06,0.00026655617810888207,-9.159999999999999e-07,0.00019501374927224577,0.0001311378739588596,0.00019803860403719062
45.851000000000006,9.93828,-5.21e-05,0.000213715,-3.6700000000000004e-05,0.00019833,24.5,8.1e-06,0.00026610503579230097,-8.890000000000002e-07,0.00019647183823320435,0.00013258425903475297,0.00019639518203282022
46.351000000000006,10.03929,-4.84e-05,0.000216679,-2.8800000000000002e-05,0.000197098,25.0,7.88e-06,0.0002656674383230257,-8.620000000000002e-07,0.00019792769550892961,0.0001340346100156194,0.0001948307122781103
46.851000000000006,10.13974,-4.49e-05,0.000219647,-2.09e-05,0.00019569900000000002,25.5,7.67e-06,0.00026524336199893394,-8.35e-07,0.0001993813665935964,0.00013548892715366592,0.00019334345995838064
47.351000000000006,10.23964,-4.11e-05,0.000222618,-1.3000000000000001e-05,0.000194555,26.0,7.48e-06,0.00026483278314314495,-8.079999999999998e-07,0.00020083289684040074,0.0001369472107010995,0.0001919316902589509
47.851000000000006,10.33918,-3.77e-05,0.00022559099999999998,-5.11e-06,0.000193001,26.5,7.28e-06,0.0002644356781040212,-7.809999999999998e-07,0.00020228233146173894,0.00013840946091012708,0.0001905936683651409
48.351000000000006,10.43822,-3.3799999999999995e-05,0.00022856799999999998,2.81e-06,0.00019192599999999998,27.0,7.11e-06,0.0002640520232551646,-7.540000000000002e-07,0.00020372971552937809,0.00013987567803295568,0.00018932765946227034
48.851000000000006,10.53698,-3.02e-05,0.00023154799999999999,1.07e-05,0.000190583,27.5,6.93e-06,0.0002636817949954206,-7.27e-07,0.00020517509397463335,0.0001413458623217921,0.00018813192873565895
49.351000000000006,10.63545,-2.65e-05,0.00023453099999999998,1.87e-05,0.000189362,28.0,6.76e-06,0.00026332496974887593,-7e-07,0.0002066185115885454,0.00014282001402884353,0.0001870047413706265
49.851000000000006,10.73372,-2.23e-05,0.000237517,2.660000000000001e-05,0.000188593,28.5,6.62e-06,0.00026298152396485785,-6.74e-07,0.00020806001302205125,0.00014429813340631668,0.00018594436255249267
50.351000000000006,10.83164,-1.88e-05,0.00024050599999999998,3.45e-05,0.000187153,29.0,6.45e-06,0.00026265143411793694,-6.47e-07,0.00020949964278616298,0.00014578022070641872,0.00018494905746657732
50.851000000000006,10.92918,-1.4499999999999993e-05,0.000243498,4.24e-05,0.000186524,29.5,6.32e-06,0.0002623346767079231,-6.2e-07,0.00021093744525214246,0.00014726627618135647,0.00018401709129820014
51.351000000000006,11.02638,-1.05e-05,0.00024649299999999997,5.04e-05,0.000185622,30.0,6.19e-06,0.00026203122825987045,-5.939999999999999e-07,0.00021237346465167442,0.00014875630008333692,0.0001831467292326808
51.851000000000006,11.123280000000001,-6.69e-06,0.00024949099999999996,5.8299999999999994e-05,0.000184487,30.5,6.05e-06,0.0002617410653240732,-5.67e-07,0.00021380774507704378,0.00015025029266456705,0.0001823362364553391
52.351000000000006,11.21981,-2.74e-06,0.000252492,6.63e-05,0.00018349299999999999,31.0,5.92e-06,0.0002614641644760685,-5.41e-07,0.0002152403304813118,0.00015174825417725387,0.0001815838781514948
52.851000000000006,11.31602,1.68e-06,0.000255497,7.42e-05,0.00018297,31.5,5.81e-06,0.00026120050231663323,-5.14e-07,0.0002166712646784869,0.00015325018487360423,0.0001808879195064676
53.351000000000006,11.41207,5.62e-06,0.000258504,8.22e-05,0.000181972,32.0,5.69e-06,0.000260950055471788,-4.879999999999999e-07,0.0002181005913437055,0.00015475608500582517,0.0001802468006504598
53.851000000000006,11.5078,9.46e-06,0.000261514,9.01e-05,0.00018087,32.5,5.57e-06,0.0002607128005927932,-4.61e-07,0.00021952835401340418,0.00015626595482612357,0.00017965966149320413
54.351000000000006,11.60335,1.3500000000000001e-05,0.000264528,9.81e-05,0.00018000200000000002,33.0,5.45e-06,0.0002604887143561516,-4.35e-07,0.00022095459608549497,0.0001577797945867065,0.00017912581688931582
54.851000000000006,11.698739999999999,1.84e-05,0.00026754400000000004,0.000106024,0.00017991,33.5,5.37e-06,0.00026027777346360843,-4.0899999999999997e-07,0.00022237936081954002,0.00015929760453978084,0.00017864458169341015
55.351000000000006,11.793989999999999,2.25e-05,0.000270563,0.000113986,0.00017909599999999998,34.0,5.27e-06,0.0002600799546421499,-3.83e-07,0.00022380269133692949,0.00016081938493755357,0.00017821527076010234
55.851000000000006,11.88925,2.71e-05,0.000273586,0.000121952,0.000178715,34.5,5.18e-06,0.0002598952346440043,-3.56e-07,0.0002252246306210545,0.00016234513603223167,0.0001778371989440077
56.351000000000006,11.98442,3.18e-05,0.000276611,0.000129921,0.000178496,35.0,5.1e-06,0.00025972359024663966,-3.3e-07,0.0002266452215174829,0.000163874858076022,0.00017750968109974137
56.851000000000006,12.07949,3.5799999999999996e-05,0.00027963900000000004,0.000137894,0.000177561,35.5,5e-06,0.00025956499825276853,-3.0399999999999997e-07,0.00022806450673413517,0.00016540855132113162,0.00017723203208191873
57.351000000000006,12.17432,4.02e-05,0.00028267099999999996,0.000145869,0.000177027,36.0,4.92e-06,0.0002594194354903433,-2.7800000000000003e-07,0.00022948252884145764,0.00016694621601976746,0.00017700356674515497
57.851000000000006,12.26891,4.49e-05,0.000285705,0.000153848,0.00017680099999999998,36.5,4.84e-06,0.0002592868788125584,-2.52e-07,0.00023089933027260106,0.0001684878524241365,0.00017682359994406534
58.351000000000006,12.36358,4.92e-05,0.000288743,0.00016183,0.000176137,37.0,4.76e-06,0.00025916730509785,-2.26e-07,0.00023231495332359277,0.00017003346078644566,0.00017669144653326518
58.851000000000006,12.45834,5.41e-05,0.000291783,0.000169815,0.00017609,37.5,4.7e-06,0.0002590606912498956,-2e-07,0.00023372944015351413,0.0001715830413589019,0.00017660642136736968
59.351000000000006,12.5531,5.9e-05,0.000294827,0.00017780400000000002,0.00017606299999999998,38.0,4.63e-06,0.00025896701419761544,-1.74e-07,0.00023514283278467394,0.0001731365943937122,0.00017656783930099408
59.851000000000006,12.64743,6.36e-05,0.000297873,0.00018579599999999998,0.000175678,38.5,4.56e-06,0.00025888625089516993,-1.49e-07,0.00023655517310278542,0.00017469412014308353,0.0001765750151887536
60.351000000000006,12.74168,6.890000000000001e-05,0.000300922,0.000193791,0.000175986,39.0,4.51e-06,0.00025881837832196237,-1.23e-07,0.00023796650285713922,0.00017625561885922282,0.00017662726388526363
60.851000000000006,12.8358,7.43e-05,0.000303975,0.00020178900000000002,0.000176463,39.5,4.47e-06,0.00025876337348263627,-9.720000000000001e-08,0.00023937686366078126,0.00017782109079433707,0.00017672390024513933
61.351000000000006,12.93009,7.900000000000001e-05,0.00030703,0.00020979,0.00017628,40.0,4.41e-06,0.00025872121340707885,-7.15e-08,0.0002407862969906866,0.00017939053620063316,0.00017686423912299597
61.851000000000006,13.024410000000001,8.39e-05,0.000310088,0.000217795,0.000176148,40.5,4.35e-06,0.0002586918751504171,-4.59e-08,0.00024219484418793466,0.0001809639553303181,0.00017704759537344878
62.351000000000006,13.1186,8.92e-05,0.00031315,0.00022580200000000002,0.00017653,41.0,4.31e-06,0.00025867533579302,-2.0299999999999996e-08,0.00024360254645788447,0.00018254134843559888,0.0001772732838511131
62.851000000000006,13.21256,9.41e-05,0.000316214,0.000233813,0.000176505,41.5,4.25e-06,0.00025867157244049976,5.23e-09,0.0002450094448703498,0.0001841227157686824,0.00017754061941060406
63.351000000000006,13.30671,9.97e-05,0.000319281,0.00024182700000000001,0.00017716,42.0,4.22e-06,0.00025868056222370884,3.07e-08,0.0002464155803597748,0.00018570805758177564,0.00017784891690653703
63.851000000000006,13.40114,0.00010482,0.00032235200000000003,0.000249844,0.00017732700000000002,42.5,4.17e-06,0.0002587022822987399,5.62e-08,0.0002478209937254107,0.0001872973741270856,0.00017819749119352718
64.351,13.495529999999999,0.00010953,0.000325425,0.000257865,0.00017709,43.0,4.12e-06,0.0002587367098469311,8.150000000000001e-08,0.00024922572563148724,0.00018889066565681912,0.00017858565712618982
64.851,13.590010000000001,0.00011522,0.000328501,0.000265888,0.000177833,43.5,4.09e-06,0.0002587838220748594,1.0699999999999999e-07,0.000250629816607392,0.0001904879324231833,0.00017901272955914022
65.351,13.68449,0.00012054,0.00033158,0.000273915,0.000178205,44.0,4.05e-06,0.000258843596214343,1.32e-07,0.00025203330704784204,0.000192089174678385,0.00017947802334699364
65.851,13.77899,0.00012627,0.00033466199999999995,0.000281945,0.000178987,44.5,4.02e-06,0.0002589160095224441,1.57e-07,0.00025343623721306224,0.00019369439267463126,0.00017998085334436524
66.351,13.87369,0.00013169,0.00033774699999999995,0.000289978,0.00017946,45.0,3.99e-06,0.0002590010392814644,1.83e-07,0.0002548386472289582,0.000195303586664129,0.00018052053440587037
66.851,13.968370000000002,0.00013714,0.000340835,0.00029801400000000004,0.000179961,45.5,3.96e-06,0.0002590986627989491,2.08e-07,0.0002562405770872929,0.0001969167568990851,0.00018109638138612424
67.351,14.06298,0.00014269999999999994,0.000343926,0.000306053,0.00018057299999999998,46.0,3.93e-06,0.0002592088574076834,2.33e-07,0.00025764206664586264,0.00019853390363170666,0.00018170770913974215
67.851,14.15775,0.00014901,0.00034702,0.000314095,0.000181935,46.5,3.91e-06,0.0002593316004656943,2.58e-07,0.0002590431556286706,0.00020015502711420054,0.00018235383252133923
68.351,14.25262,0.00015402,0.000350117,0.00032214,0.000181996,47.0,3.87e-06,0.0002594668693562531,2.8300000000000003e-07,0.00026044388362610063,0.00020178012759877376,0.00018303406638553097
68.851,14.34733,0.00016018,0.000353216,0.000330189,0.000183208,47.5,3.86e-06,0.0002596146414878689,3.08e-07,0.00026184429009509704,0.00020340920533763323,0.0001837477255869324
69.351,14.44215,0.00016578,0.000356319,0.00033824,0.000183859,48.0,3.83e-06,0.0002597748942942944,3.33e-07,0.0002632444143593369,0.0002050422605829859,0.00018449412498015887
69.851,14.53684,0.00017172,0.000359425,0.000346295,0.00018485,48.5,3.81e-06,0.00025994760523452435,3.579999999999999e-07,0.0002646442956094051,0.00020667929358703874,0.00018527257941982562
70.351,14.63173,0.00017717,0.000362533,0.000354353,0.00018535,49.0,3.78e-06,0.00026013275179279354,3.83e-07,0.0002660439729029705,0.00020832030460199877,0.00018608240376054798
70.851,14.72662,0.00018354,0.000365645,0.00036241400000000003,0.000186771,49.5,3.77e-06,0.00026033031147858036,4.0799999999999995e-07,0.00026744348516496074,0.0002099652938800729,0.0001869229128569411
71.351,14.82141,0.00018918,0.000368759,0.00037047699999999997,0.000187462,50.0,3.75e-06,0.00026054026182660475,4.32e-07,0.000268842871187737,0.0002116142616734681,0.00018779342156362023
