Temp./°C,Time/min,dL/Lo,Certificate,Standard,Corrected,delT,EngAlpha,Fitted,Alpha,Poly5,SplFit,TightSpl
22.554,0.0,2.25e-05,7.91e-05,-0.000401093,0.000502685,0.0,inf,0.0001341582019845529,2.78e-06,0.00022030148283912806,8.117743769054165e-05,0.00048171836336798654
23.054,4.4626,5.529999999999999e-07,8.190000000000001e-05,-0.000393355,0.0004757780000000001,0.5,0.000951555,0.0001355481777056346,2.78e-06,0.00022042090869509772,8.308836487960734e-05,0.0004689400282513014
23.554,4.87844,-1.01e-05,8.47e-05,-0.000385613,0.000460231,1.0,0.000460231,0.0001369420287825546,2.79e-06,0.000220552959389499,8.500086119568103e-05,0.0004566431317228572
24.054,5.15461,-1.91e-05,8.75e-05,-0.000377868,0.000446271,1.5,0.000297514,0.0001383397503492874,2.8e-06,0.0002206975956095241,8.691492706919427e-05,0.00044481627114529215
24.554,5.37597,-2.69e-05,9.03e-05,-0.000370119,0.00043357800000000016,2.0,0.00021678900000000008,0.00013974133754502153,2.81e-06,0.00022085477812390248,8.883056293057873e-05,0.00043344804388124436
25.054,5.56571,-3.37e-05,9.32e-05,-0.000362366,0.000421877,2.5,0.000168751,0.00014114678551416454,2.81e-06,0.00022102446778282832,9.07477692102659e-05,0.0004225270472933519
25.554,5.7355,-3.99e-05,9.6e-05,-0.00035461,0.00041071,3.0,0.000136903,0.00014255608940633721,2.82e-06,0.00022120662551788168,9.266654633868748e-05,0.00041204187874425285
26.054,5.89117,-4.58e-05,9.88e-05,-0.00034685,0.000399897,3.5,0.000114256,0.0001439692443763749,2.83e-06,0.00022140121234195563,9.458689474627499e-05,0.00040198113559658505
26.554,6.03567,-5.08e-05,0.000101685,-0.000339086,0.00039,4.0,9.75e-05,0.00014538624558433147,2.84e-06,0.000221608189349179,9.650881486346009e-05,0.00039233341521298696
27.054,6.17217,-5.520000000000003e-05,0.000104528,-0.000331319,0.000380682,4.5,8.46e-05,0.0001468070881954736,2.85e-06,0.00022182751771484491,9.843230712067429e-05,0.00038308731495609636
27.554,6.30227,-5.98e-05,0.000107375,-0.000323548,0.000371127,5.0,7.42e-05,0.0001482317673802856,2.85e-06,0.0002220591586953309,0.00010035737194834926,0.00037423143218855154
28.054,6.42751,-6.32e-05,0.000110224,-0.000315773,0.000362755,5.5,6.6e-05,0.00014966027831446764,2.86e-06,0.0002223030736280278,0.00010228400977691658,0.00036575436427299033
28.554,6.54825,-6.65e-05,0.000113077,-0.000307995,0.000354587,6.0,5.91e-05,0.00015109261617893277,2.87e-06,0.00022255922393126133,0.00010421222103680779,0.00035764470857205103
29.054,6.66528,-6.979999999999999e-05,0.000115934,-0.000300213,0.000346354,6.5,5.33e-05,0.00015252877615981294,2.88e-06,0.00022282757110421957,0.00010614200615845457,0.0003498910624483717
29.554,6.77958,-7.25e-05,0.000118793,-0.000292428,0.000338729,7.0,4.84e-05,0.00015396875344845335,2.88e-06,0.0002231080767268758,0.00010807336557228846,0.0003424820232645902
30.054,6.89169,-7.47e-05,0.000121656,-0.000284639,0.00033161800000000005,7.5,4.42e-05,0.000155412543241416,2.89e-06,0.0002234007024599135,0.00011000629970874106,0.00033540618838334495
30.554,7.00237,-7.659999999999999e-05,0.000124521,-0.000276846,0.000324798,8.0,4.06e-05,0.00015686014074047828,2.8999999999999998e-06,0.000223705410044653,0.00011194080899824398,0.00032865215516727375
31.054,7.11155,-7.840000000000001e-05,0.00012739,-0.00026905,0.00031804,8.5,3.74e-05,0.00015831154115263264,2.91e-06,0.00022402216130297439,0.00011387689387122879,0.0003222085209790147
31.554,7.21955,-7.94e-05,0.000130262,-0.00026125,0.000312087,9.0,3.47e-05,0.00015976673969008825,2.91e-06,0.0002243509181372432,0.00011581455475812712,0.000316063883181206
32.054,7.3265600000000015,-8.08e-05,0.00013313799999999998,-0.000253447,0.000305805,9.5,3.2200000000000003e-05,0.0001612257315702693,2.92e-06,0.00022469164253023383,0.00011775379208937056,0.0003102068391364857
32.554,7.432460000000002,-8.13e-05,0.000136016,-0.00024564,0.000300323,10.0,3e-05,0.00016268851201581454,2.93e-06,0.0002250442965450565,0.00011969460629539064,0.00030462598620749186
33.054,7.53752,-8.190000000000001e-05,0.00013889799999999998,-0.00023783,0.000294864,10.5,2.81e-05,0.00016415507625458037,2.94e-06,0.00022540884232508107,0.00012163699780661903,0.0002993099217568626
33.554,7.642010000000001,-8.159999999999999e-05,0.00014178200000000002,-0.000230016,0.000290196,11.0,2.64e-05,0.00016562541951963775,2.94e-06,0.0002257852420938615,0.00012358096705348732,0.0002942472431472359
34.054,7.74574,-8.149999999999999e-05,0.00014467,-0.000222198,0.00028539,11.5,2.48e-05,0.00016709953704927222,2.95e-06,0.00022617345815506042,0.00012552651446642705,0.00028942654774124994
34.554,7.84897,-8.09e-05,0.000147561,-0.000214377,0.000281005,12.0,2.34e-05,0.00016857742408698737,2.96e-06,0.0002265734528923754,0.0001274736404758699,0.0002848364329015427
35.054,7.95194,-8.01e-05,0.000150455,-0.000206552,0.000276865,12.5,2.21e-05,0.00017005907588150048,2.97e-06,0.00022698518876946216,0.00012942234551224733,0.00028046549599075235
35.554,8.05495,-7.979999999999999e-05,0.00015335299999999998,-0.000198724,0.00027226400000000003,13.0,2.09e-05,0.00017154448768674476,2.97e-06,0.00022740862832985962,0.00013137263000599108,0.00027630233437151694
36.054,8.15814,-7.8e-05,0.000156253,-0.000190893,0.00026918,13.5,1.99e-05,0.0001730336547618701,2.98e-06,0.0002278437341969165,0.0001333244943875327,0.0002723355454064745
36.554,8.261289999999999,-7.69e-05,0.000159157,-0.000183057,0.00026532,14.0,1.9e-05,0.00017452657237124018,2.99e-06,0.00022829046907371382,0.00013527793908730374,0.00026855372645826316
37.054,8.36443,-7.52e-05,0.000162064,-0.000175219,0.000262128,14.5,1.8100000000000006e-05,0.00017602323578443536,3e-06,0.00022874879574299057,0.0001372329645357358,0.0002649454748895209
37.554,8.46723,-7.37e-05,0.00016497400000000002,-0.00016737599999999998,0.000258668,15.0,1.7199999999999998e-05,0.00017752364027625233,3e-06,0.00022921867706706886,0.0001391895711632605,0.00026149938806288597
38.054,8.570319999999999,-7.140000000000001e-05,0.000167887,-0.000159531,0.000256039,15.5,1.65e-05,0.00017902778112670195,3.01e-06,0.00022970007598777748,0.00014114775940030948,0.00025820406334099634
38.554,8.67313,-6.890000000000001e-05,0.000170803,-0.000151681,0.000253549,16.0,1.58e-05,0.00018053565362101225,3.02e-06,0.00023019295552637997,0.00014310752967731423,0.00025504809808649006
39.054,8.77597,-6.709999999999999e-05,0.000173722,-0.000143829,0.000250454,16.5,1.52e-05,0.0001820472530496245,3.03e-06,0.00023069727878349388,0.00014506888242470645,0.00025202158468426916
39.554,8.878919999999997,-6.440000000000001e-05,0.00017664400000000005,-0.00013597299999999998,0.000248204,17.0,1.46e-05,0.00018356257470819853,3.03e-06,0.0002312130089390219,0.00014703181807291767,0.00024912059560829085
40.054,8.981860000000003,-6.17e-05,0.00017957,-0.00012811299999999998,0.000245972,17.5,1.41e-05,0.00018508161389760736,3.04e-06,0.00023174010925207204,0.0001489963370523795,0.0002463426983547762
40.554,9.08473,-5.85e-05,0.000182499,-0.00012025,0.000244291,18.0,1.36e-05,0.0001866043659239417,3.05e-06,0.0002322785430608834,0.00015096243979352355,0.00024368546041994652
41.054,9.18767,-5.59e-05,0.00018543,-0.000112383,0.000241893,18.5,1.31e-05,0.0001881308260985059,3.06e-06,0.000232828273782753,0.00015293012672678143,0.00024114644930002288
41.554,9.29026,-5.28e-05,0.000188365,-0.000104513,0.00024008,19.0,1.26e-05,0.0001896609897378207,3.06e-06,0.00023338926491395804,0.00015489939828258466,0.00023872323249122637
42.054,9.39294,-4.95e-05,0.000191303,-9.66e-05,0.000238421,19.5,1.22e-05,0.00019119485216362265,3.07e-06,0.00023396148002968265,0.00015687025489136489,0.0002364133774897782
42.554,9.49546,-4.63e-05,0.000194244,-8.88e-05,0.000236686,20.0,1.18e-05,0.0001927324087028651,3.08e-06,0.0002345448827839403,0.00015884269698355368,0.00023421445179189941
43.054,9.5978,-4.29e-05,0.000197188,-8.09e-05,0.000235198,20.5,1.15e-05,0.00019427365468771378,3.09e-06,0.00023513943690950216,0.0001608167249895827,0.0002321240228938112
43.554,9.69993,-3.96e-05,0.000200136,-7.3e-05,0.000233501,21.0,1.11e-05,0.0001958185854555529,3.09e-06,0.00023574510621781914,0.00016279233933988346,0.00023013965829173476
44.054,9.80196,-3.61e-05,0.000203086,-6.51e-05,0.000232135,21.5,1.0800000000000003e-05,0.0001973671963489813,3.1e-06,0.0002363618545989472,0.0001647695404648876,0.00022825892548189108
44.554,9.90369,-3.27e-05,0.000206039,-5.720000000000002e-05,0.000230594,22.0,1.05e-05,0.00019891948271581403,3.11e-06,0.00023698964602147194,0.00016674832879502672,0.00022647939196050143
45.054,10.00526,-2.9e-05,0.000208996,-4.93e-05,0.000229311,22.5,1.02e-05,0.00020047543990907996,3.12e-06,0.00023762844453243444,0.0001687287047607324,0.00022479862522378693
45.554,10.10675,-2.55e-05,0.000211956,-4.14e-05,0.000227886,23.0,9.91e-06,0.00020203506328702638,3.12e-06,0.0002382782142572558,0.00017071066879243622,0.00022321419276796867
46.054,10.2082,-2.18e-05,0.000214918,-3.35e-05,0.0002266,23.5,9.64e-06,0.00020359834821311344,3.13e-06,0.00023893891939966074,0.00017269422132056976,0.00022172366208926777
46.554,10.30908,-1.84e-05,0.000217884,-2.56e-05,0.000225157,24.0,9.38e-06,0.0002051652900560189,3.14e-06,0.00023961052424160446,0.0001746793627755647,0.00022032460068390546
47.054,10.40961,-1.47e-05,0.000220853,-1.77e-05,0.000223905,24.5,9.14e-06,0.00020673588418963556,3.14e-06,0.0002402929931431953,0.00017666609358785252,0.0002190145760481028
47.554,10.5097,-1.0800000000000003e-05,0.000223825,-9.81e-06,0.000222877,25.0,8.92e-06,0.00020831012599307032,3.15e-06,0.00024098629054262197,0.00017865441418786493,0.00021779115567808092
48.054,10.60944,-6.78e-06,0.0002268,-1.89e-06,0.000221908,25.5,8.7e-06,0.0002098880108506486,3.16e-06,0.00024169038095607498,0.00018064432500603347,0.000216651907070061
48.554,10.70885,-2.95e-06,0.000229778,6.02e-06,0.000220805,26.0,8.49e-06,0.00021146953415190906,3.17e-06,0.00024240522897767385,0.00018263582647278973,0.00021559439772026424
49.054,10.80762,9.32e-07,0.00023275900000000005,1.39e-05,0.000219745,26.5,8.29e-06,0.0002130546912916067,3.17e-06,0.00024313079927939293,0.00018462891901856526,0.0002146161951249116
49.554,10.90581,4.7e-06,0.000235743,2.19e-05,0.00021857,27.0,8.1e-06,0.00021464347766971198,3.18e-06,0.00024386705661098287,0.00018662360307379177,0.0002137148667802244
50.054,11.00362,8.7e-06,0.00023873,2.98e-05,0.000217627,27.5,7.91e-06,0.00021623588869141208,3.19e-06,0.0002446139657998987,0.00018861987906890074,0.00021288798018242368
50.554,11.10079,1.33e-05,0.00024172,3.77e-05,0.000217284,28.0,7.76e-06,0.00021783191976710832,3.2e-06,0.00024537149175122295,0.00019061774743432382,0.00021213310282773055
51.054,11.19761,1.7100000000000002e-05,0.000244714,4.57e-05,0.000216132,28.5,7.58e-06,0.00021943156631241837,3.2e-06,0.00024613959944758904,0.0001926172086004926,0.00021144780221236622
51.554,11.29393,2.11e-05,0.00024771,5.36e-05,0.000215216,29.0,7.42e-06,0.00022103482374817487,3.21e-06,0.0002469182539491109,0.00019461826299783868,0.0002108296458325518
52.054,11.38997,2.56e-05,0.000250709,6.15e-05,0.000214757,29.5,7.28e-06,0.0002226416875004281,3.22e-06,0.000247707420393302,0.00019662091105679362,0.00021027620118450844
52.554,11.48607,2.97e-05,0.000253712,6.95e-05,0.000213954,30.0,7.13e-06,0.00022425215300044031,3.22e-06,0.000248507063995004,0.00019862515320778908,0.00020978503576445727
53.054,11.58195,3.39e-05,0.000256717,7.74e-05,0.000213217,30.5,6.99e-06,0.0002258662156846931,3.23e-06,0.0002493171500463098,0.0002006309898812566,0.00020935371706861942
53.554,11.67741,3.78e-05,0.000259726,8.540000000000003e-05,0.000212133,31.0,6.84e-06,0.00022748387099488137,3.24e-06,0.00025013764391648924,0.00020263842150762776,0.000208979812593216
54.054,11.7731,4.2e-05,0.00026273700000000003,9.33e-05,0.000211424,31.5,6.71e-06,0.0002291051143779167,3.25e-06,0.0002509685110519133,0.00020464744851733424,0.0002086608898344682
54.554,11.86863,4.66e-05,0.000265752,0.000101295,0.000211039,32.0,6.59e-06,0.00023072994128592577,3.25e-06,0.00025180971697598073,0.00020665807134080756,0.00020839451628859712
55.054,11.96398,5.12e-05,0.00026876900000000003,0.000109256,0.000210675,32.5,6.48e-06,0.00023235834717625107,3.26e-06,0.00025266122728903823,0.0002086702904084793,0.00020817856789799664
55.554,12.05928,5.550000000000003e-05,0.00027179,0.00011722,0.000210068,33.0,6.37e-06,0.00023399032751145014,3.27e-06,0.00025352300766831115,0.0002106841061507811,0.00020801215438975146
56.054,12.15431,6.03e-05,0.000274814,0.00012518700000000002,0.000209898,33.5,6.27e-06,0.00023562587775929726,3.27e-06,0.0002543950238678241,0.00021269951899814462,0.00020789469393711895
56.554,12.249,6.459999999999997e-05,0.00027784,0.000133158,0.000209251,34.0,6.15e-06,0.00023726499339278215,3.28e-06,0.00025527724171832715,0.00021471652938100132,0.0002078256047133566
57.054,12.3437,6.94e-05,0.00028087,0.000141131,0.000209186,34.5,6.06e-06,0.00023890766989010867,3.29e-06,0.00025616962712722135,0.00021673513772978284,0.00020780430489172175
57.554,12.43817,7.390000000000001e-05,0.000283902,0.00014910799999999998,0.000208653,35.0,5.96e-06,0.0002405539027346983,3.3e-06,0.00025707214607848276,0.00021875534447492084,0.0002078302126454718
58.054,12.53258,7.879999999999999e-05,0.000286938,0.000157088,0.000208649,35.5,5.88e-06,0.00024220368741518627,3.3e-06,0.0002579847646325857,0.00022077715004684685,0.00020790274614786424
58.554,12.62678,8.420000000000001e-05,0.000289977,0.000165072,0.000209056,36.0,5.81e-06,0.0002438570194254249,3.31e-06,0.00025890744892643125,0.0002228005548759924,0.00020802132357215653
59.054,12.72081,8.859999999999999e-05,0.000293018,0.000173058,0.000208575,36.5,5.71e-06,0.00024551389426448163,3.32e-06,0.0002598401651732686,0.00022482555939278928,0.00020818536309160588
59.554,12.81481,9.36e-05,0.000296063,0.000181048,0.000208565,37.0,5.64e-06,0.00024717430743663926,3.32e-06,0.000260782879662622,0.00022685216402766893,0.00020839428287946989
60.054,12.90879,9.83e-05,0.000299111,0.000189041,0.000208397,37.5,5.56e-06,0.0002488382544513965,3.33e-06,0.00026173555876021467,0.00022888036921106294,0.0002086475011090059
60.554,13.00271,0.00010344,0.000302161,0.000197037,0.000208564,38.0,5.49e-06,0.0002505057308234671,3.34e-06,0.0002626981689078929,0.00023091017537340297,0.00020894443595347135
61.054,13.09653,0.00010846,0.000305215,0.000205037,0.000208638,38.5,5.42e-06,0.00025217673207278196,3.35e-06,0.00026367067662355203,0.0002329415829451206,0.00020928450558612365
61.554,13.19024,0.00011316,0.000308271,0.00021304,0.000208392,39.0,5.34e-06,0.00025385125372448525,3.35e-06,0.0002646530485010618,0.00023497459235664742,0.00020966712818022018
62.054,13.28416,0.00011874,0.000311331,0.000221045,0.000209026,39.5,5.29e-06,0.0002555292913089388,3.36e-06,0.0002656452512101899,0.00023700920403841504,0.00021009172190901835
62.554,13.37831,0.00012418,0.000314393,0.000229054,0.000209519,40.0,5.24e-06,0.00025721084036171935,3.37e-06,0.00026664725149652636,0.00023904541842085502,0.0002105577049457757
63.054,13.472370000000002,0.00012947,0.000317459,0.000237066,0.000209863,40.5,5.18e-06,0.00025889589642361923,3.37e-06,0.00026765901618140946,0.00024108323593439895,0.0002110644954637494
63.554,13.56639,0.00013477,0.00032052700000000003,0.000245082,0.000210216,41.0,5.13e-06,0.00026058445504064526,3.38e-06,0.00026868051216185013,0.00024312265700947847,0.0002116115116361972
64.054,13.66058,0.00014013,0.000323599,0.0002531,0.000210629,41.5,5.08e-06,0.0002622765117640223,3.39e-06,0.0002697117064104572,0.0002451636820765252,0.00021219817163637615
64.554,13.75466,0.00014575,0.000326673,0.000261122,0.000211301,42.0,5.03e-06,0.0002639720621501894,3.39e-06,0.00027075256597536247,0.0002472063115659706,0.0002128238936375439
65.054,13.848679999999998,0.00015075,0.000329751,0.000269147,0.000211354,42.5,4.97e-06,0.0002656711017608006,3.4e-06,0.00027180305798014297,0.0002492505459082464,0.0002134880958129579
65.554,13.94273,0.00015617,0.000332831,0.000277175,0.000211826,43.0,4.93e-06,0.0002673736261627267,3.41e-06,0.00027286314962374865,0.0002512963855337841,0.00021419019633587533
66.054,14.03644,0.00016237,0.00033591400000000004,0.000285206,0.000213079,43.5,4.9000000000000005e-06,0.00026907963092805305,3.42e-06,0.00027393280818042726,0.0002533438308730154,0.00021492961337955382
66.554,14.12995,0.00016742,0.000339,0.00029324,0.000213181,44.0,4.85e-06,0.0002707891116340822,3.42e-06,0.00027501200099964637,0.00025539288235637184,0.00021570576511725068
67.054,14.22343,0.0001736,0.00034209,0.000301277,0.000214413,44.5,4.82e-06,0.0002725020638633313,3.43e-06,0.00027610069550602174,0.00025744354041428493,0.00021651806972222337
67.554,14.31685,0.00017926,0.000345182,0.000309318,0.000215124,45.0,4.78e-06,0.0002742184832035324,3.44e-06,0.00027719885919923887,0.00025949580547718646,0.00021736594536772924
68.054,14.41029,0.00018498,0.000348277,0.000317361,0.000215896,45.5,4.74e-06,0.00027593836524763497,3.44e-06,0.0002783064596539788,0.0002615496779755078,0.00021824881022702573
68.554,14.50389,0.00019082,0.000351375,0.000325408,0.000216787,46.0,4.71e-06,0.00027766170559380193,3.45e-06,0.00027942346451984446,0.0002636051583396807,0.0002191660824733703
69.054,14.59761,0.00019704,0.000354476,0.00033345699999999995,0.000218058,46.5,4.69e-06,0.00027938849984541353,3.46e-06,0.00028054984152128424,0.00026566224700013677,0.00022011718028002033
69.554,14.69132,0.00020305,0.00035758,0.00034151,0.000219119,47.0,4.66e-06,0.0002811187436110654,3.46e-06,0.0002816855584575175,0.00026772094438730744,0.00022110152182023331
70.054,14.78537,0.00020894,0.000360686,0.000349566,0.00022006,47.5,4.63e-06,0.0002828524325045683,3.47e-06,0.0002828305832024568,0.0002697812509316244,0.00022211852526726652
70.554,14.87946,0.00021488,0.000363796,0.000357625,0.000221051,48.0,4.61e-06,0.0002845895621449478,3.48e-06,0.0002839848837046365,0.00027184316706351934,0.00022316760879437746
71.054,14.97405,0.00022051,0.000366909,0.000365687,0.000221732,48.5,4.57e-06,0.00028633012815644726,3.48e-06,0.00028514842798713514,0.00027390669321342376,0.0002242481905748235
71.554,15.06882,0.00022678,0.000370024,0.000373752,0.000223052,49.0,4.55e-06,0.0002880741261685241,3.49e-06,0.00028632118414750147,0.0002759718298117692,0.00022535968878186207
72.054,15.16366,0.00023297,0.000373143,0.00038182,0.000224292,49.5,4.53e-06,0.0002898215518158517,3.5000000000000016e-06,0.0002875031203576771,0.0002780385772889874,0.0002265015215887506
72.554,15.25856,0.00023902,0.000376264,0.000389892,0.000225393,50.0,4.51e-06,0.00029157240073831876,3.51e-06,0.00028869420486392523,0.0002801069360755098,0.00022767310716874647
73.054,15.35345,0.00024529,0.000379389,0.000397966,0.000226713,50.5,4.49e-06,0.00029332666858102995,3.51e-06,0.00028989440598675047,0.00028217690660176814,0.00022887386369510718
73.554,15.44828,0.00025138,0.000382516,0.000406043,0.000227852,51.0,4.47e-06,0.0002950843509943058,3.52e-06,0.0002911036921208277,0.0002842484892981939,0.00023010320934109
74.054,15.54328,0.00025776,0.000385646,0.000414124,0.000229282,51.5,4.45e-06,0.0002968454436336823,3.53e-06,0.0002923220317349261,0.0002863216845952187,0.0002313605622799525
74.554,15.63821,0.00026402,0.000388779,0.000422207,0.000230592,52.0,4.43e-06,0.00029860994215991,3.53e-06,0.0002935493933718318,0.00028839649292327415,0.00023264534068495195
75.054,15.73294,0.00027018,0.000391915,0.00043029300000000016,0.000231801,52.5,4.42e-06,0.0003003778422389562,3.54e-06,0.00029478574564827456,0.0002904729147127919,0.0002339569627293459
75.554,15.82767,0.00027636,0.000395054,0.000438383,0.000233031,53.0,4.4e-06,0.0003021491395420045,3.55e-06,0.0002960310572548536,0.0002925509503942035,0.00023529484658639163
76.054,15.92249,0.00028262,0.000398195,0.000446475,0.00023434,53.5,4.38e-06,0.00030392382974545225,3.55e-06,0.0002972852969559585,0.0002946306003979404,0.0002366584104293467
76.554,16.01746,0.00028941,0.00040134,0.000454571,0.000236179,54.0,4.37e-06,0.00030570190853091393,3.56e-06,0.0002985484335896989,0.0002967118651544345,0.0002380470724314684
77.054,16.11252,0.00029554,0.000404487,0.000462669,0.000237358,54.5,4.36e-06,0.00030748337158521865,3.57e-06,0.00029982043606782607,0.0002987947450941171,0.0002394602507660142
