Temp./°C,Time/min,dL/Lo,Certificate,Standard,Corrected,delT,EngAlpha,Fitted,Alpha,Poly5,SplFit,TightSpl
21.54300000000001,0.0,1.57e-05,7.340000000000001e-05,-0.000416727,0.000505815,0.0,inf,0.00022084655877809825,6.590000000000001e-07,0.0002723803408727957,0.0001866090133404126,0.0004933133922099395
22.04300000000001,4.03622,2.82e-06,7.62e-05,-0.000408997,0.000487989,0.5,0.000975977,0.00022117825026195703,6.68e-07,0.0002719374765135479,0.00018728376640180354,0.00048232990814048716
22.54300000000001,4.40666,-5e-06,7.900000000000001e-05,-0.000401263,0.000475257,1.0,0.000475257,0.00022151475093809742,6.78e-07,0.0002715048568261824,0.00018796178100926155,0.00047171619622599954
23.04300000000001,4.66945,-1.16e-05,8.18e-05,-0.000393525,0.000463705,1.5,0.000309137,0.00022185605456359202,6.87e-07,0.0002710824537604313,0.0001886430545419001,0.0004614640516433762
23.54300000000001,4.88286,-1.7e-05,8.46e-05,-0.000385783,0.00045339,2.0,0.000226695,0.00022220215489914853,6.970000000000001e-07,0.00027067023931890105,0.00018932758437883264,0.0004515652695695167
24.04300000000001,5.06864,-2.26e-05,8.75e-05,-0.000378038,0.000442864,2.5,0.000177146,0.00022255304570910914,7.070000000000002e-07,0.0002702681855570215,0.0001900153678991727,0.00044201164518132066
24.54300000000001,5.23626,-2.78e-05,9.03e-05,-0.000370289,0.00043279,3.0,0.000144263,0.00022290872076145178,7.159999999999998e-07,0.00026987626458299815,0.0001907064024820336,0.00043279497365568767
25.04300000000001,5.39113,-3.26e-05,9.31e-05,-0.000362537,0.000423069,3.5,0.000120877,0.00022326917382778757,7.259999999999998e-07,0.0002694944485577607,0.00019140068550652892,0.00042390705016951725
25.54300000000001,5.53618,-3.68e-05,9.59e-05,-0.00035478,0.000413945,4.0,0.000103486,0.00022363439868336291,7.35e-07,0.00026912270969491536,0.000192098214351772,0.000415339669899709
26.04300000000001,5.6733,-4.03e-05,9.88e-05,-0.00034702,0.000405521,4.5,9.01e-05,0.0002240043891070598,7.45e-07,0.000268761020260695,0.0001927989863968765,0.00040708462802316233
26.54300000000001,5.80408,-4.35e-05,0.000101622,-0.000339257,0.000397372,5.0,7.950000000000001e-05,0.00022437913888139448,7.540000000000002e-07,0.0002684093525739089,0.00019350299902095563,0.000399133719716777
27.04300000000001,5.93029,-4.64e-05,0.000104465,-0.00033149,0.000389548,5.5,7.08e-05,0.00022475864179251738,7.64e-07,0.00026806767900589413,0.00019421024960312297,0.0003914787401574527
27.54300000000001,6.0523099999999985,-4.9700000000000015e-05,0.000107312,-0.00032371900000000004,0.000381292,6.0,6.35e-05,0.00022514289163021455,7.729999999999998e-07,0.000267735971980466,0.00019492073552249194,0.0003841114845220887
28.04300000000001,6.1709,-5.17e-05,0.000110162,-0.000315944,0.000374375,6.5,5.76e-05,0.00022553188218790645,7.83e-07,0.0002674142039738683,0.00019563445415817608,0.0003770237479875847
28.54300000000001,6.28677,-5.37e-05,0.000113015,-0.000308166,0.000367452,7.0,5.25e-05,0.00022592560726264802,7.92e-07,0.0002671023475147244,0.00019635140288928873,0.0003702073257308402
29.04300000000001,6.4009800000000014,-5.550000000000003e-05,0.000115871,-0.000300385,0.000360801,7.5,4.81e-05,0.00022632406065512933,8.02e-07,0.00026680037518398694,0.0001970715790949434,0.00036365401292875484
29.54300000000001,6.51377,-5.68e-05,0.00011873,-0.000292599,0.000354506,8.0,4.4299999999999986e-05,0.00022672723616967531,8.109999999999998e-07,0.00026650825961488963,0.00019779498015425355,0.00035735560475822826
30.04300000000001,6.62472,-5.820000000000001e-05,0.000121593,-0.00028481,0.000348228,8.5,4.1e-05,0.0002271351276142454,8.2e-07,0.00026622597349289646,0.00019852160344633262,0.00035130389639615985
30.54300000000001,6.73459,-5.920000000000001e-05,0.00012445799999999998,-0.000277018,0.000342295,9.0,3.8e-05,0.00022754772880043367,8.3e-07,0.00026595348955565316,0.00019925144635029403,0.0003454906830194493
31.04300000000001,6.84335,-6.02e-05,0.000127327,-0.000269222,0.00033637900000000004,9.5,3.54e-05,0.0002279650335434691,8.39e-07,0.00026569078059293823,0.00019998450624525137,0.0003399077598049963
31.54300000000001,6.95144,-6.06e-05,0.000130199,-0.00026142200000000003,0.00033103900000000004,10.0,3.3100000000000005e-05,0.00022838703566221627,8.49e-07,0.00026543781944661136,0.0002007207805103179,0.00033454692192970014
32.043,7.05883,-6.07e-05,0.000133074,-0.000253619,0.000325995,10.5,3.1e-05,0.00022881372897917284,8.58e-07,0.00026519457901056655,0.00020146026652460725,0.0003293999645704607
32.543,7.16494,-6.31e-05,0.000135953,-0.000245812,0.00031869200000000003,11.0,2.9e-05,0.0002292451073204725,8.67e-07,0.000264961032230681,0.00020220296166723278,0.0003244586829041772
33.043,7.27045,-6.25e-05,0.000138834,-0.000238002,0.00031428900000000004,11.5,2.730000000000001e-05,0.00022968116451588315,8.77e-07,0.00026473715210476685,0.00020294886331730796,0.0003197148721077495
33.543,7.375669999999999,-6.18e-05,0.000141719,-0.000230188,0.00031010000000000017,12.0,2.58e-05,0.00023012189439880763,8.86e-07,0.00026452291168251995,0.0002036979688539463,0.0003151603273580769
34.043,7.48056,-6.08e-05,0.00014460700000000002,-0.00022237,0.000306181,12.5,2.45e-05,0.00023056729080628388,8.95e-07,0.00026431828406547377,0.00020445027565626117,0.0003107868438320592
34.543,7.5850399999999985,-5.97e-05,0.000147498,-0.000214549,0.000302389,13.0,2.33e-05,0.00023101734757898429,9.05e-07,0.000264123242406945,0.00020520578110336604,0.0003065862167065959
35.043,7.68935,-5.820000000000001e-05,0.000150392,-0.000206725,0.000298924,13.5,2.21e-05,0.00023147205856121548,9.14e-07,0.0002639377599119889,0.0002059644825743744,0.00030255024115858654
35.543,7.79333,-5.7e-05,0.000153289,-0.000198896,0.000295213,14.0,2.11e-05,0.00023193141760091945,9.23e-07,0.0002637618098373473,0.0002067263774483997,0.0002986707123649307
36.043,7.897480000000002,-5.56e-05,0.000156189,-0.000191065,0.000291657,14.5,2.01e-05,0.00023239541854967304,9.33e-07,0.00026359536549139945,0.0002074914631045554,0.00029493942550252794
36.543,8.00165,-5.37e-05,0.000159093,-0.00018323,0.000288609,15.0,1.92e-05,0.00023286405526268782,9.42e-07,0.00026343840023411317,0.00020825973692195502,0.0002913481757482779
37.043,8.10566,-5.17e-05,0.000162,-0.00017539099999999995,0.000285671,15.5,1.84e-05,0.00023333732159880956,9.51e-07,0.00026329088747699533,0.00020903119627971182,0.0002878887582790801
37.543,8.20985,-4.9700000000000015e-05,0.00016491,-0.00016754900000000002,0.000282713,16.0,1.77e-05,0.0002338152114205194,9.6e-07,0.00026315280068304114,0.0002098058385569394,0.00028455296827183406
38.043,8.31438,-4.760000000000001e-05,0.000167822,-0.000159703,0.000279912,16.5,1.7e-05,0.00023429771859393355,9.7e-07,0.0002630241133666875,0.00021058366113275127,0.0002813335785336154
38.543,8.41875,-4.52e-05,0.00017073900000000002,-0.000151854,0.000277358,17.0,1.63e-05,0.00023478483698880144,9.79e-07,0.00026290479909376013,0.0002113646613862607,0.000278227272392204
39.043,8.5231,-4.2700000000000015e-05,0.00017365799999999998,-0.000144002,0.000274927,17.5,1.57e-05,0.00023527656047850906,9.88e-07,0.00026279483148142647,0.00021214883669658135,0.00027523171080555544
39.543,8.62727,-4.04e-05,0.00017658,-0.000136146,0.000272334,18.0,1.51e-05,0.00023577288294007628,9.97e-07,0.0002626941841981465,0.00021293618444282654,0.0002723445547316257
40.043,8.73134,-3.77e-05,0.000179506,-0.000128286,0.000270116,18.5,1.46e-05,0.0002362737982541576,1.01e-06,0.00026260283096362085,0.00021372670200410978,0.0002695634651283704
40.543,8.83535,-3.48e-05,0.000182434,-0.000120423,0.000268071,19.0,1.41e-05,0.00023677930030504266,1.02e-06,0.00026252074554874386,0.0002145203867595445,0.00026688610295374544
41.043,8.93867,-3.18e-05,0.000185366,-0.000112557,0.000266138,19.5,1.36e-05,0.00023728938298065577,1.02e-06,0.00026244790177555296,0.0002153172360882442,0.0002643101291657065
41.543,9.04178,-2.88e-05,0.000188301,-0.000104687,0.000264144,20.0,1.32e-05,0.00023780404017255613,1.03e-06,0.00026238427351717945,0.00021611724736932223,0.00026183320472220945
42.043,9.14475,-2.56e-05,0.000191238,-9.68e-05,0.00026243,20.5,1.28e-05,0.00023832326577593699,1.04e-06,0.00026232983469779954,0.00021692041798189216,0.00025945299058121
42.543,9.24738,-2.26e-05,0.00019417900000000005,-8.89e-05,0.000260471,21.0,1.24e-05,0.00023884705368962754,1.05e-06,0.00026228455929258316,0.00021772674530506735,0.000257167147700664
43.043,9.34983,-1.94e-05,0.000197124,-8.109999999999999e-05,0.000258773,21.5,1.2e-05,0.00023937539781609105,1.06e-06,0.000262248421327648,0.00021853622671796138,0.0002549733370385272
43.543,9.45186,-1.59e-05,0.000200071,-7.32e-05,0.000257315,22.0,1.17e-05,0.00023990829206142522,1.07e-06,0.00026222139488000563,0.0002193488595996876,0.0002528692195527555
44.043,9.55365,-1.32e-05,0.000203021,-6.53e-05,0.000255078,22.5,1.13e-05,0.0002404457303353631,1.08e-06,0.0002622034540775155,0.0002201646413293595,0.0002508524562013044
44.543,9.65547,-9.58e-06,0.000205974,-5.7399999999999986e-05,0.000253786,23.0,1.1e-05,0.00024098770655127215,1.09e-06,0.00026219457309883476,0.00022098356928609053,0.00024892070794213
45.043,9.75685,-6.45e-06,0.000208931,-4.95e-05,0.000251983,23.5,1.07e-05,0.00024153421462615502,1.1e-06,0.0002621947261733672,0.00022180564084899412,0.00024707163573318796
45.543,9.85809,-3.34e-06,0.00021189,-4.16e-05,0.000250158,24.0,1.04e-05,0.00024208524848064877,1.11e-06,0.0002622038875812161,0.00022263085339718384,0.0002453029005324339
46.043,9.95898,7.59e-08,0.000214853,-3.37e-05,0.000248632,24.5,1.01e-05,0.00024264080203902495,1.12e-06,0.00026222203165313335,0.00022345920430977297,0.00024361216329782382
46.543,10.05941,3.33e-06,0.000217819,-2.58e-05,0.000246952,25.0,9.88e-06,0.00024320086922919085,1.12e-06,0.0002622491327704693,0.0002242906909658751,0.00024199708498731345
47.043,10.1595,6.97e-06,0.000220787,-1.7899999999999998e-05,0.000245645,25.5,9.63e-06,0.0002437654439826876,1.13e-06,0.00026228516536512645,0.00022512531074460364,0.00024045532655885855
47.543,10.2591,1.01e-05,0.000223759,-9.98e-06,0.000243862,26.0,9.38e-06,0.00024433452023469074,1.14e-06,0.0002623301039195061,0.00022596306102507204,0.00023898454897041486
48.043,10.35853,1.3800000000000007e-05,0.000226734,-2.07e-06,0.000242609,26.5,9.16e-06,0.0002449080919240125,1.15e-06,0.0002623839229664621,0.00022680393918639375,0.0002375824131799382
48.543,10.45793,1.76e-05,0.000229712,5.85e-06,0.00024151,27.0,8.94e-06,0.00024548615299309785,1.16e-06,0.0002624465970892491,0.00022764794260768224,0.0002362465801453844
49.043,10.55657,2.1e-05,0.000232693,1.3800000000000007e-05,0.000239905,27.5,8.72e-06,0.000246068697388027,1.17e-06,0.00026251810092147473,0.00022849506866805095,0.00023497471082470922
49.543,10.65471,2.45e-05,0.000235677,2.17e-05,0.000238468,28.0,8.52e-06,0.0002466557190585158,1.18e-06,0.00026259840914704953,0.0002293453147466134,0.00023376446617586846
50.043,10.75256,2.81e-05,0.000238664,2.9600000000000005e-05,0.00023716,28.5,8.32e-06,0.0002472472119579138,1.19e-06,0.00026268749650013674,0.00023019867822248296,0.0002326135071568178
50.543,10.85006,3.18e-05,0.000241655,3.76e-05,0.000235868,29.0,8.13e-06,0.0002478431700432056,1.2e-06,0.0002627853377651047,0.0002310551564747731,0.00023151949472551315
51.043,10.94726,3.55e-05,0.000244648,4.55e-05,0.000234678,29.5,7.96e-06,0.0002484435872750117,1.21e-06,0.00026289190777647564,0.0002319147468825973,0.0002304800898399102
51.543,11.04403,3.94e-05,0.000247644,5.34e-05,0.000233582,30.0,7.79e-06,0.0002490484576175853,1.21e-06,0.0002630071814188771,0.00023277744682506903,0.00022949295345796482
52.043,11.14008,4.33e-05,0.000250643,6.14e-05,0.000232585,30.5,7.63e-06,0.00024965777503881603,1.22e-06,0.00026313113362699293,0.0002336432536813017,0.00022855574653763268
52.543,11.236,4.64e-05,0.000253646,6.929999999999999e-05,0.000230726,31.0,7.44e-06,0.00025027153351022736,1.23e-06,0.00026326373938551214,0.0002345121648304088,0.00022766613003686966
53.043,11.33193,4.96e-05,0.000256651,7.730000000000001e-05,0.000229023,31.5,7.27e-06,0.0002508897270069783,1.24e-06,0.0002634049737290814,0.00023538417765150377,0.00022682176491363156
53.543,11.42766,5.36e-05,0.00025966,8.52e-05,0.000228075,32.0,7.13e-06,0.00025151234950786163,1.25e-06,0.0002635548117422544,0.0002362592895237001,0.00022602061892107553
54.043,11.52309,5.76e-05,0.000262671,9.32e-05,0.000227142,32.5,6.99e-06,0.00025213939499530574,1.26e-06,0.00026371322855944356,0.00023713749782611118,0.00022526188699316472
54.543,11.61851,6.15e-05,0.000265685,0.00010112,0.000226045,33.0,6.85e-06,0.00025277085745537345,1.27e-06,0.000263880199364869,0.00023801879993785055,0.00022454507085906377
55.043,11.71386,6.51e-05,0.000268703,0.000109081,0.000224753,33.5,6.71e-06,0.0002534067308777629,1.28e-06,0.00026405569939251007,0.0002389031932380315,0.00022386967224793722
55.543,11.80907,6.95e-05,0.000271724,0.000117045,0.000224141,34.0,6.59e-06,0.0002540470092558054,1.28e-06,0.00026423970392605643,0.00023979067510576774,0.0002232351928889496
56.043,11.90416,7.35e-05,0.000274747,0.000125012,0.000223236,34.5,6.47e-06,0.0002546916865864689,1.29e-06,0.0002644321882988572,0.00024068124292017255,0.00022264113451126555
56.543,11.99902,7.77e-05,0.000277774,0.000132982,0.000222516,35.0,6.36e-06,0.0002553407568703552,1.3e-06,0.0002646331278938728,0.0002415748940603594,0.00022208699884404957
57.043,12.0936,8.18e-05,0.000280803,0.000140956,0.000221618,35.5,6.24e-06,0.00025599421411170043,1.31e-06,0.0002648424981436244,0.0002424716259054418,0.00022157228761646635
57.543,12.18803,8.6e-05,0.000283836,0.000148933,0.00022091,36.0,6.14e-06,0.00025665205231837685,1.32e-06,0.00026506027453014613,0.00024337143583453316,0.0002210965025576803
58.043,12.28228,9.07e-05,0.000286871,0.00015691299999999998,0.000220618,36.5,6.04e-06,0.00025731426550189003,1.33e-06,0.0002652864325849336,0.00024427432122674697,0.0002206591453968562
58.543,12.37661,9.51e-05,0.00028991,0.000164896,0.000220146,37.0,5.95e-06,0.0002579808476773813,1.34e-06,0.00026552094788889627,0.0002451802794611966,0.00022025971786315856
59.043,12.47061,9.940000000000003e-05,0.000292951,0.000172883,0.000219472,37.5,5.85e-06,0.00025865179286362625,1.35e-06,0.0002657637960723064,0.0002460893079169956,0.00021989772168575183
59.543,12.5646,0.00010398,0.000295996,0.000180872,0.000219104,38.0,5.77e-06,0.00025932709508303515,1.35e-06,0.0002660149528147511,0.0002470014039732574,0.00021957265859380074
60.043,12.65875,0.00010834,0.000299044,0.000188865,0.000218518,38.5,5.68e-06,0.0002600067483616538,1.36e-06,0.0002662743938450817,0.00024791656500909543,0.00021928403031646983
60.543,12.75284,0.00011289,0.00030209400000000004,0.000196861,0.000218123,39.0,5.59e-06,0.0002606907467291614,1.37e-06,0.00026654209494136557,0.0002488347884036232,0.00021903133858292362
61.043,12.84709,0.00011746,0.000305148,0.000204861,0.000217747,39.5,5.51e-06,0.00026137908421887315,1.38e-06,0.0002668180319308352,0.00024975607153595415,0.00021881408512232676
61.543,12.94136,0.00012226,0.000308204,0.000212863,0.000217601,40.0,5.44e-06,0.0002620717548677384,1.39e-06,0.0002671021806898398,0.00025068041178520173,0.00021863177166384377
62.043,13.0358,0.00012686,0.000311264,0.000220869,0.000217254,40.5,5.36e-06,0.0002627687527163422,1.4e-06,0.0002673945171437959,0.00025160780653047933,0.0002184838999366392
62.543,13.13019,0.00013145,0.000314326,0.000228878,0.000216898,41.0,5.29e-06,0.0002634700718089028,1.41e-06,0.000267695017267137,0.00025253825315090043,0.0002183699716698778
63.043,13.22451,0.00013604,0.000317392,0.00023689,0.000216541,41.5,5.22e-06,0.00026417570619327417,1.42e-06,0.0002680036570832649,0.0002534717490255786,0.000218289488592724
63.543,13.31881,0.00014099999999999998,0.00032046,0.000244905,0.000216555,42.0,5.16e-06,0.00026488564992094483,1.42e-06,0.00026832041266450007,0.00025440829153362723,0.00021824195243434232
64.043,13.41309,0.00014577,0.000323531,0.000252924,0.000216377,42.5,5.09e-06,0.0002655998970470385,1.43e-06,0.00026864526013203297,0.00025534787805415966,0.00021822686492389753
64.543,13.50733,0.00015079,0.000326606,0.000260945,0.00021645,43.0,5.03e-06,0.0002663184416303128,1.44e-06,0.0002689781756558729,0.00025629050596628954,0.00021824372779055405
65.043,13.60166,0.00015576,0.00032968300000000005,0.00026897,0.000216473,43.5,4.98e-06,0.0002670412777331611,1.45e-06,0.00026931913545479914,0.00025723617264913017,0.00021829204276347647
65.543,13.69584,0.00016064,0.000332763,0.000276998,0.000216405,44.0,4.92e-06,0.0002677683994216104,1.46e-06,0.0002696681157963144,0.000258184875481795,0.00021837131157182948
66.043,13.79011,0.00016572,0.000335846,0.000285029,0.000216537,44.5,4.87e-06,0.0002684998007653238,1.47e-06,0.0002700250929965893,0.00025913661184339754,0.0002184810359447775
66.543,13.88449,0.00017082,0.00033893300000000003,0.000293063,0.00021669,45.0,4.82e-06,0.00026923547583759767,1.48e-06,0.0002703900434204193,0.00026009137911305134,0.00021862071761148517
67.043,13.97919,0.00017590000000000002,0.000342022,0.0003011,0.000216821,45.5,4.77e-06,0.00026997541871536467,1.48e-06,0.0002707629434811716,0.0002610491746698698,0.00021878985830111719
67.543,14.07383,0.00018109,0.000345114,0.000309141,0.000217063,46.0,4.72e-06,0.00027071962347919123,1.49e-06,0.0002711437696407365,0.00026200999589296624,0.000218987959742838
68.043,14.16842,0.00018616,0.00034820900000000004,0.00031718400000000003,0.000217185,46.5,4.67e-06,0.0002714680842132789,1.5e-06,0.00027153249840947786,0.00026297384016145425,0.00021921452366581215
68.543,14.26327,0.00019159,0.000351307,0.000325231,0.000217666,47.0,4.63e-06,0.00027222079500546325,1.51e-06,0.000271929106346184,0.0002639407048544473,0.00021946905179920438
69.043,14.35814,0.00019678,0.000354407,0.00033328,0.000217907,47.5,4.59e-06,0.00027297774994721586,1.52e-06,0.00027233357005801884,0.0002649105873510588,0.00021975104587217912
69.543,14.453,0.00020195,0.000357511,0.00034133300000000003,0.000218128,48.0,4.54e-06,0.0002737389431336421,1.53e-06,0.00027274586620047074,0.0002658834850304021,0.00022006000761390097
70.043,14.54787,0.00020703,0.00036061800000000016,0.000349389,0.00021825900000000005,48.5,4.5e-06,0.00027450436866348284,1.54e-06,0.0002731659714773041,0.00026685939527159084,0.00022039543875353456
70.543,14.64258,0.00021282,0.000363728,0.000357448,0.0002191,49.0,4.47e-06,0.0002752740206391131,1.54e-06,0.00027359386264051147,0.0002678383154537384,0.00022075684102024437
71.043,14.73735,0.00021799,0.00036684,0.00036551,0.00021932,49.5,4.43e-06,0.00027604789316654286,1.55e-06,0.0002740295164902599,0.0002688202429559582,0.00022114371614319513
71.543,14.83215,0.00022333,0.000369956,0.000373575,0.000219711,50.0,4.39e-06,0.0002768259803554167,1.56e-06,0.00027447290987484647,0.0002698051751573638,0.0002215555658515513
72.043,14.92706,0.00022885,0.000373074,0.000381643,0.000220281,50.5,4.36e-06,0.0002776082763190149,1.57e-06,0.00027492401969064556,0.0002707931094370684,0.00022199189187447745
72.543,15.02198,0.00023414,0.000376195,0.000389714,0.000220621,51.0,4.33e-06,0.00027839477517425134,1.58e-06,0.00027538282288206025,0.00027178404317418586,0.00022245219594113833
73.043,15.1169,0.00024014,0.00037932,0.00039778800000000016,0.000221671,51.5,4.2999999999999995e-06,0.000279185471041675,1.59e-06,0.0002758492964414728,0.0002727779737478293,0.00022293597978069823
73.543,15.21196,0.00024444,0.000382447,0.000405866,0.000221021,52.0,4.25e-06,0.00027998035804546934,1.59e-06,0.0002763234174091968,0.00027377489853711235,0.00022344274512232194
74.043,15.3072,0.00024997,0.000385577,0.000413946,0.000221601,52.5,4.22e-06,0.00028077943031345337,1.6e-06,0.0002768051628734246,0.00027477481492114834,0.00022397199369517402
74.543,15.4026,0.00025561,0.00038871,0.000422029,0.000222291,53.0,4.19e-06,0.000281582681977081,1.61e-06,0.0002772945099701811,0.0002757777202790508,0.0002245232272284189
75.043,15.49796,0.00026123,0.000391846,0.000430115,0.00022296,53.5,4.17e-06,0.00028239010717143946,1.62e-06,0.0002777914358832714,0.0002767836119899332,0.00022509594745122135
