#EXPORTTYPE:           ,DATA ALL                                                   
#FILE:                 ,anorthShawS1R1.ngb-sle                                     
#FORMAT:               ,NETZSCH5                                                   
#FTYPE:                ,ANSI                                                       
#IDENTITY:             ,anorthosite shawmere                                       
#DECIMAL:              ,POINT                                                      
#SEPARATOR:            ,COMMA                                                      
#MTYPE:                ,DIL                                                        
#INSTRUMENT:           ,NETZSCH DIL 402C                                           
#PROJECT:              ,feldspar                                                   
#DATE/TIME:            ,9/1/2019 1:09:40 PM (UTC-5)                                
#CORR. FILE:           ,                                                           
#TEMPCAL:              ,TCALZERO.TMX                                               
#LABORATORY:           ,Mineral Physics                                            
#OPERATOR:             ,PAG                                                        
#REMARK:               ,bare, norm start, for bytown and rocks, shawmere thin fresh
#SAMPLE:               ,shawmere fresh                                             
#SAMPLE LENGTH /mm:    ,12.99                                                      
#MATERIAL:             ,sapphire stnd                                              
#MEASMODE:             ,Standard Expansion                                         
#PURGE GAS 1:          ,ARGON                                                      
#FLOW RATE 1 /(ml/min):,75                                                         
#M.RANGE /µm:          ,500                                                        
#CORR. CODE:           ,010                                                        
#RANGE:                ,20.0°C/3.0(K/min)/1000.0°C                                 
#SEGMENT:              ,S1/1                                                       
#SEG. 1:               ,20.0°C/3.0(K/min)/1000.0°C                                 

##Temp./°C,Time/min,dL/Lo,Alpha/(1/K)
 23.02700,  0.00000, 2.7601e-005,-1.0043e-006
 23.52700,  4.53790, 1.2783e-005,-1.0385e-005
 24.02700,  4.89583, 6.6809e-006,-1.2579e-005
 24.52700,  5.15395, 2.8364e-007,-1.0517e-005
 25.02700,  5.36594,-4.4134e-006,-9.6902e-006
 25.52700,  5.55029,-9.3420e-006,-8.9818e-006
 26.02700,  5.71629,-1.3386e-005,-7.4908e-006
 26.52700,  5.86889,-1.7086e-005,-7.0022e-006
 27.02700,  6.01126,-2.0373e-005,-6.6302e-006
 27.52700,  6.14587,-2.3554e-005,-5.0036e-006
 28.02700,  6.27440,-2.5651e-005,-4.4305e-006
 28.52700,  6.39840,-2.7946e-005,-4.1732e-006
 29.02700,  6.51871,-2.9848e-005,-3.7507e-006
 29.52700,  6.63586,-3.1523e-005,-3.4721e-006
 30.02700,  6.75017,-3.3417e-005,-3.0888e-006
 30.52700,  6.86259,-3.4734e-005,-2.3492e-006
 31.02700,  6.97289,-3.5431e-005,-1.1483e-006
 31.52700,  7.08146,-3.6070e-005,-1.1523e-006
 32.02700,  7.18878,-3.6328e-005,-6.6875e-007
 32.52700,  7.29533,-3.6744e-005,-6.1477e-007
 33.02700,  7.40097,-3.6870e-005,-3.3921e-008
 33.52700,  7.50620,-3.7051e-005, 2.2455e-007
 34.02700,  7.61089,-3.6896e-005, 7.7760e-007
 34.52700,  7.71551,-3.6140e-005, 5.1210e-007
 35.02700,  7.81980,-3.6082e-005, 1.4167e-006
 35.52700,  7.92377,-3.5021e-005, 1.7502e-006
 36.02700,  8.02734,-3.4023e-005, 2.4421e-006
 36.52700,  8.13088,-3.2872e-005, 2.8476e-006
 37.02700,  8.23424,-3.1167e-005, 2.9203e-006
 37.52700,  8.33759,-2.9533e-005, 3.2274e-006
 38.02700,  8.44063,-2.8114e-005, 3.1047e-006
 38.52700,  8.54373,-2.6566e-005, 3.9798e-006
 39.02700,  8.64686,-2.4220e-005, 4.4370e-006
 39.52700,  8.74991,-2.2216e-005, 4.2565e-006
 40.02700,  8.85274,-1.9901e-005, 4.4207e-006
 40.52700,  8.95551,-1.7693e-005, 4.6712e-006
 41.02700,  9.05846,-1.5020e-005, 4.9594e-006
 41.52700,  9.16136,-1.2561e-005, 5.0271e-006
 42.02700,  9.26421,-1.0107e-005, 5.3526e-006
 42.52700,  9.36688,-7.4860e-006, 5.3998e-006
 43.02700,  9.46945,-4.5631e-006, 5.4528e-006
 43.52700,  9.57207,-1.9197e-006, 5.5188e-006
 44.02700,  9.67456, 4.7157e-007, 5.5502e-006
 44.52700,  9.77663, 3.4932e-006, 5.8226e-006
 45.02700,  9.87854, 6.4980e-006, 5.7054e-006
 45.52700,  9.98019, 9.5022e-006, 5.9518e-006
 46.02700, 10.08158, 1.2296e-005, 5.8210e-006
 46.52700, 10.18275, 1.5155e-005, 5.9116e-006
 47.02700, 10.28337, 1.8088e-005, 6.0855e-006
 47.52700, 10.38363, 2.1348e-005, 6.2806e-006
 48.02700, 10.48362, 2.4493e-005, 6.3274e-006
 48.52700, 10.58331, 2.7760e-005, 6.3632e-006
 49.02700, 10.68254, 3.0718e-005, 6.1573e-006
 49.52700, 10.78136, 3.3932e-005, 6.6425e-006
 50.02700, 10.87969, 3.7191e-005, 6.4870e-006
 50.52700, 10.97773, 4.0527e-005, 6.7679e-006
 51.02700, 11.07539, 4.3927e-005, 6.4861e-006
 51.52700, 11.17278, 4.7038e-005, 6.4476e-006
 52.02700, 11.26959, 5.0407e-005, 6.6922e-006
 52.52700, 11.36605, 5.4050e-005, 6.8626e-006
 53.02700, 11.46215, 5.7166e-005, 7.1725e-006
 53.52700, 11.55799, 6.1045e-005, 7.1104e-006
 54.02700, 11.65371, 6.4567e-005, 6.8190e-006
 54.52700, 11.74932, 6.7736e-005, 6.9678e-006
 55.02700, 11.84460, 7.1454e-005, 7.0561e-006
 55.52700, 11.93968, 7.4884e-005, 7.3205e-006
 56.02700, 12.03476, 7.8597e-005, 7.0030e-006
 56.52700, 12.12980, 8.1848e-005, 7.0805e-006
 57.02700, 12.22473, 8.5660e-005, 7.3071e-006
 57.52700, 12.31950, 8.9347e-005, 7.3064e-006
 58.02700, 12.41405, 9.3194e-005, 7.7592e-006
 58.52700, 12.50835, 9.6911e-005, 7.5254e-006
 59.02700, 12.60249, 1.0073e-004, 7.5227e-006
 59.52700, 12.69651, 1.0466e-004, 7.9762e-006
 60.02700, 12.79037, 1.0858e-004, 7.9305e-006
 60.52700, 12.88419, 1.1251e-004, 8.0087e-006
 61.02700, 12.97793, 1.1661e-004, 8.1219e-006
 61.52700, 13.07165, 1.2063e-004, 7.9004e-006
 62.02700, 13.16540, 1.2461e-004, 8.0960e-006
 62.52700, 13.25921, 1.2869e-004, 8.3814e-006
 63.02700, 13.35290, 1.3300e-004, 8.5019e-006
 63.52700, 13.44657, 1.3700e-004, 8.3319e-006
 64.02700, 13.54036, 1.4127e-004, 8.5648e-006
 64.52700, 13.63398, 1.4583e-004, 8.8623e-006
 65.02700, 13.72753, 1.5011e-004, 8.3736e-006
 65.52700, 13.82098, 1.5411e-004, 8.6462e-006
 66.02700, 13.91459, 1.5896e-004, 9.0721e-006
 66.52700, 14.00834, 1.6310e-004, 8.9533e-006
 67.02700, 14.10229, 1.6786e-004, 9.1000e-006
 67.52700, 14.19646, 1.7230e-004, 8.7059e-006
 68.02700, 14.29070, 1.7669e-004, 9.2249e-006
 68.52700, 14.38498, 1.8121e-004, 9.1384e-006
 69.02700, 14.47952, 1.8577e-004, 9.3806e-006
 69.52700, 14.57413, 1.9051e-004, 9.4564e-006
 70.02700, 14.66867, 1.9546e-004, 9.2647e-006
 70.52700, 14.76321, 1.9968e-004, 9.1573e-006
 71.02700, 14.85758, 2.0473e-004, 9.6335e-006
 71.52700, 14.95184, 2.0932e-004, 9.4284e-006
 72.02700, 15.04632, 2.1400e-004, 9.8062e-006
 72.52700, 15.14094, 2.1904e-004, 9.4657e-006
 73.02700, 15.23582, 2.2366e-004, 9.4322e-006
 73.52700, 15.33100, 2.2840e-004, 9.6789e-006
 74.02700, 15.42631, 2.3361e-004, 9.3433e-006
 74.52700, 15.52167, 2.3814e-004, 9.7878e-006
 75.02700, 15.61706, 2.4278e-004, 1.0062e-005
 75.52700, 15.71268, 2.4790e-004, 9.8385e-006
 76.02700, 15.80845, 2.5293e-004, 9.7982e-006
 76.52700, 15.90403, 2.5793e-004, 9.7923e-006
 77.02700, 15.99930, 2.6275e-004, 9.8530e-006
 77.52700, 16.09459, 2.6753e-004, 1.0391e-005
 78.02700, 16.18995, 2.7294e-004, 1.0081e-005
 78.52700, 16.28554, 2.7799e-004, 1.0084e-005
 79.02700, 16.38126, 2.8277e-004, 9.9530e-006
 79.52700, 16.47687, 2.8771e-004, 9.8880e-006
 80.02700, 16.57259, 2.9279e-004, 1.0046e-005
 80.52700, 16.66844, 2.9800e-004, 1.0215e-005
 81.02700, 16.76459, 3.0297e-004, 9.9542e-006
 81.52700, 16.86058, 3.0796e-004, 1.0138e-005
 82.02700, 16.95666, 3.1322e-004, 1.0541e-005
 82.52700, 17.05281, 3.1825e-004, 1.0124e-005
 83.02700, 17.14882, 3.2334e-004, 1.0541e-005
 83.52700, 17.24519, 3.2900e-004, 1.0624e-005
 84.02700, 17.34165, 3.3408e-004, 1.0352e-005
 84.52700, 17.43804, 3.3949e-004, 1.0704e-005
 85.02700, 17.53459, 3.4459e-004, 1.0158e-005
 85.52700, 17.63131, 3.4948e-004, 1.0581e-005
 86.02700, 17.72806, 3.5512e-004, 1.0681e-005
 86.52700, 17.82492, 3.6022e-004, 1.0610e-005
 87.02700, 17.92189, 3.6566e-004, 1.0768e-005
 87.52700, 18.01872, 3.7122e-004, 1.0795e-005
 88.02700, 18.11576, 3.7640e-004, 1.0537e-005
 88.52700, 18.21293, 3.8142e-004, 1.0681e-005
 89.02700, 18.31001, 3.8722e-004, 1.1102e-005
 89.52700, 18.40732, 3.9233e-004, 1.0469e-005
 90.02700, 18.50451, 3.9781e-004, 1.0890e-005
 90.52700, 18.60192, 4.0319e-004, 1.0659e-005
 91.02700, 18.69963, 4.0860e-004, 1.0787e-005
 91.52700, 18.79736, 4.1397e-004, 1.0554e-005
 92.02700, 18.89515, 4.1942e-004, 1.0661e-005
 92.52700, 18.99315, 4.2478e-004, 1.0827e-005
 93.02700, 19.09138, 4.2990e-004, 1.0986e-005
 93.52700, 19.18972, 4.3570e-004, 1.1177e-005
 94.02700, 19.28825, 4.4113e-004, 1.1097e-005
 94.52700, 19.38664, 4.4668e-004, 1.0998e-005
 95.02700, 19.48526, 4.5221e-004, 1.0712e-005
 95.52700, 19.58417, 4.5754e-004, 1.0963e-005
 96.02700, 19.68326, 4.6304e-004, 1.1059e-005
 96.52700, 19.78230, 4.6870e-004, 1.1239e-005
 97.02700, 19.88149, 4.7406e-004, 1.1084e-005
 97.52700, 19.98093, 4.7943e-004, 1.0727e-005
 98.02700, 20.08051, 4.8529e-004, 1.1217e-005
 98.52700, 20.17994, 4.9086e-004, 1.1255e-005
 99.02700, 20.27956, 4.9640e-004, 1.1364e-005
 99.52700, 20.37902, 5.0198e-004, 1.1225e-005
100.02700, 20.47851, 5.0774e-004, 1.0936e-005
100.52700, 20.57804, 5.1341e-004, 1.1337e-005
101.02700, 20.67753, 5.1867e-004, 1.1365e-005
101.52700, 20.77710, 5.2468e-004, 1.1481e-005
102.02700, 20.87719, 5.3021e-004, 1.1037e-005
102.52700, 20.97726, 5.3566e-004, 1.1150e-005
103.02700, 21.07751, 5.4153e-004, 1.1068e-005
103.52700, 21.17780, 5.4664e-004, 1.1375e-005
104.02700, 21.27818, 5.5239e-004, 1.1303e-005
104.52700, 21.37862, 5.5815e-004, 1.0906e-005
105.02700, 21.47932, 5.6378e-004, 1.1480e-005
105.52700, 21.57984, 5.6945e-004, 1.1271e-005
106.02700, 21.68048, 5.7496e-004, 1.1354e-005
106.52700, 21.78121, 5.8073e-004, 1.1414e-005
107.02700, 21.88226, 5.8655e-004, 1.1494e-005
107.52700, 21.98342, 5.9248e-004, 1.1389e-005
108.02700, 22.08470, 5.9778e-004, 1.1711e-005
108.52700, 22.18599, 6.0376e-004, 1.1067e-005
109.02700, 22.28730, 6.0939e-004, 1.1377e-005
109.52700, 22.38873, 6.1476e-004, 1.1392e-005
110.02700, 22.49004, 6.2078e-004, 1.1502e-005
110.52700, 22.59157, 6.2648e-004, 1.1616e-005
111.02700, 22.69335, 6.3222e-004, 1.1386e-005
111.52700, 22.79516, 6.3803e-004, 1.1625e-005
112.02700, 22.89689, 6.4395e-004, 1.1548e-005
112.52700, 22.99853, 6.4965e-004, 1.1631e-005
113.02700, 23.10012, 6.5537e-004, 1.1546e-005
113.52700, 23.20182, 6.6106e-004, 1.1711e-005
114.02700, 23.30353, 6.6704e-004, 1.1498e-005
114.52700, 23.40527, 6.7264e-004, 1.1574e-005
115.02700, 23.50716, 6.7867e-004, 1.1596e-005
115.52700, 23.60926, 6.8428e-004, 1.1520e-005
116.02700, 23.71157, 6.9007e-004, 1.1704e-005
116.52700, 23.81407, 6.9579e-004, 1.1724e-005
117.02700, 23.91684, 7.0174e-004, 1.1521e-005
117.52700, 24.01956, 7.0754e-004, 1.1508e-005
118.02700, 24.12244, 7.1333e-004, 1.1567e-005
118.52700, 24.22524, 7.1922e-004, 1.1749e-005
119.02700, 24.32800, 7.2506e-004, 1.1709e-005
119.52700, 24.43091, 7.3078e-004, 1.1823e-005
120.02700, 24.53369, 7.3690e-004, 1.1815e-005
120.52700, 24.63647, 7.4281e-004, 1.1791e-005
121.02700, 24.73941, 7.4865e-004, 1.1547e-005
121.52700, 24.84217, 7.5442e-004, 1.2017e-005
122.02700, 24.94517, 7.6044e-004, 1.1747e-005
122.52700, 25.04830, 7.6619e-004, 1.1665e-005
123.02700, 25.15151, 7.7202e-004, 1.1815e-005
123.52700, 25.25488, 7.7804e-004, 1.2111e-005
124.02700, 25.35828, 7.8416e-004, 1.1705e-005
124.52700, 25.46182, 7.8971e-004, 1.1323e-005
125.02700, 25.56536, 7.9592e-004, 1.2424e-005
125.52700, 25.66910, 8.0194e-004, 1.1752e-005
126.02700, 25.77298, 8.0773e-004, 1.1846e-005
126.52700, 25.87697, 8.1373e-004, 1.1583e-005
127.02700, 25.98111, 8.1958e-004, 1.2215e-005
127.52700, 26.08525, 8.2535e-004, 1.1407e-005
128.02700, 26.18944, 8.3124e-004, 1.1894e-005
128.52700, 26.29391, 8.3722e-004, 1.2050e-005
129.02700, 26.39839, 8.4311e-004, 1.1776e-005
129.52700, 26.50303, 8.4909e-004, 1.2098e-005
130.02700, 26.60769, 8.5523e-004, 1.2071e-005
130.52700, 26.71245, 8.6117e-004, 1.2053e-005
131.02700, 26.81742, 8.6707e-004, 1.1954e-005
131.52700, 26.92242, 8.7335e-004, 1.2270e-005
132.02700, 27.02741, 8.7929e-004, 1.1784e-005
132.52700, 27.13245, 8.8530e-004, 1.2188e-005
133.02700, 27.23730, 8.9133e-004, 1.1929e-005
133.52700, 27.34230, 8.9734e-004, 1.2125e-005
134.02700, 27.44728, 9.0347e-004, 1.2155e-005
134.52700, 27.55235, 9.0924e-004, 1.1874e-005
135.02700, 27.65747, 9.1539e-004, 1.1983e-005
135.52700, 27.76269, 9.2142e-004, 1.2142e-005
136.02700, 27.86808, 9.2748e-004, 1.2162e-005
136.52700, 27.97350, 9.3356e-004, 1.1931e-005
137.02700, 28.07886, 9.3963e-004, 1.2306e-005
137.52700, 28.18429, 9.4561e-004, 1.2255e-005
138.02700, 28.28989, 9.5179e-004, 1.2221e-005
138.52700, 28.39573, 9.5803e-004, 1.2296e-005
139.02700, 28.50148, 9.6408e-004, 1.2190e-005
139.52700, 28.60730, 9.7012e-004, 1.2016e-005
140.02700, 28.71299, 9.7628e-004, 1.2338e-005
140.52700, 28.81883, 9.8239e-004, 1.2614e-005
141.02700, 28.92469, 9.8866e-004, 1.2848e-005
141.52700, 29.03033, 9.9523e-004, 1.2212e-005
142.02700, 29.13591, 1.0015e-003, 1.2558e-005
142.52700, 29.24162, 1.0075e-003, 1.2351e-005
143.02700, 29.34750, 1.0138e-003, 1.2391e-005
143.52700, 29.45366, 1.0201e-003, 1.2371e-005
144.02700, 29.55999, 1.0262e-003, 1.2300e-005
144.52700, 29.66652, 1.0323e-003, 1.2563e-005
145.02700, 29.77313, 1.0385e-003, 1.2443e-005
145.52700, 29.87985, 1.0449e-003, 1.2738e-005
146.02700, 29.98647, 1.0512e-003, 1.2755e-005
146.52700, 30.09317, 1.0576e-003, 1.1945e-005
147.02700, 30.19986, 1.0634e-003, 1.2499e-005
147.52700, 30.30651, 1.0699e-003, 1.2680e-005
148.02700, 30.41317, 1.0760e-003, 1.2202e-005
148.52700, 30.51984, 1.0822e-003, 1.2669e-005
149.02700, 30.62670, 1.0885e-003, 1.2608e-005
149.52700, 30.73367, 1.0949e-003, 1.2189e-005
150.02700, 30.84064, 1.1011e-003, 1.2502e-005
150.52700, 30.94754, 1.1073e-003, 1.2436e-005
151.02700, 31.05462, 1.1134e-003, 1.2650e-005
151.52700, 31.16197, 1.1200e-003, 1.2697e-005
152.02700, 31.26947, 1.1260e-003, 1.2490e-005
152.52700, 31.37671, 1.1322e-003, 1.2608e-005
153.02700, 31.48400, 1.1384e-003, 1.2597e-005
153.52700, 31.59135, 1.1452e-003, 1.2606e-005
154.02700, 31.69891, 1.1514e-003, 1.2691e-005
154.52700, 31.80640, 1.1576e-003, 1.1970e-005
155.02700, 31.91400, 1.1639e-003, 1.2769e-005
155.52700, 32.02180, 1.1700e-003, 1.2953e-005
156.02700, 32.12954, 1.1764e-003, 1.2604e-005
156.52700, 32.23742, 1.1826e-003, 1.2381e-005
157.02700, 32.34561, 1.1889e-003, 1.2933e-005
157.52700, 32.45396, 1.1956e-003, 1.2808e-005
158.02700, 32.56205, 1.2020e-003, 1.2629e-005
158.52700, 32.67017, 1.2083e-003, 1.2720e-005
159.02700, 32.77830, 1.2144e-003, 1.2714e-005
159.52700, 32.88669, 1.2209e-003, 1.2975e-005
160.02700, 32.99490, 1.2272e-003, 1.2033e-005
160.52700, 33.10286, 1.2333e-003, 1.3043e-005
161.02700, 33.21103, 1.2402e-003, 1.3150e-005
161.52700, 33.31959, 1.2463e-003, 1.2723e-005
162.02700, 33.42836, 1.2529e-003, 1.2521e-005
162.52700, 33.53720, 1.2588e-003, 1.2442e-005
163.02700, 33.64630, 1.2653e-003, 1.2875e-005
163.52700, 33.75584, 1.2717e-003, 1.2534e-005
164.02700, 33.86553, 1.2779e-003, 1.2642e-005
164.52700, 33.97507, 1.2842e-003, 1.2717e-005
165.02700, 34.08463, 1.2905e-003, 1.3118e-005
165.52700, 34.19414, 1.2973e-003, 1.2847e-005
166.02700, 34.30335, 1.3036e-003, 1.2971e-005
166.52700, 34.41232, 1.3101e-003, 1.3155e-005
167.02700, 34.52131, 1.3170e-003, 1.2837e-005
167.52700, 34.63034, 1.3232e-003, 1.2653e-005
168.02700, 34.73898, 1.3296e-003, 1.3061e-005
168.52700, 34.84755, 1.3360e-003, 1.3457e-005
169.02700, 34.95646, 1.3428e-003, 1.2948e-005
169.52700, 35.06597, 1.3494e-003, 1.2801e-005
170.02700, 35.17558, 1.3556e-003, 1.3510e-005
170.52700, 35.28504, 1.3623e-003, 1.3047e-005
171.02700, 35.39479, 1.3690e-003, 1.2706e-005
171.52700, 35.50500, 1.3751e-003, 1.2707e-005
172.02700, 35.61531, 1.3816e-003, 1.2956e-005
172.52700, 35.72557, 1.3883e-003, 1.2878e-005
173.02700, 35.83582, 1.3945e-003, 1.3136e-005
173.52700, 35.94584, 1.4011e-003, 1.2818e-005
174.02700, 36.05597, 1.4076e-003, 1.2901e-005
174.52700, 36.16604, 1.4141e-003, 1.2859e-005
175.02700, 36.27601, 1.4206e-003, 1.2828e-005
175.52700, 36.38589, 1.4270e-003, 1.3639e-005
176.02700, 36.49561, 1.4339e-003, 1.2967e-005
176.52700, 36.60575, 1.4403e-003, 1.3170e-005
177.02700, 36.71596, 1.4471e-003, 1.3194e-005
177.52700, 36.82641, 1.4535e-003, 1.3305e-005
178.02700, 36.93690, 1.4602e-003, 1.2869e-005
178.52700, 37.04742, 1.4664e-003, 1.3296e-005
179.02700, 37.15800, 1.4732e-003, 1.3479e-005
179.52700, 37.26858, 1.4802e-003, 1.3399e-005
180.02700, 37.37944, 1.4865e-003, 1.3333e-005
180.52700, 37.49032, 1.4934e-003, 1.3290e-005
181.02700, 37.60134, 1.5003e-003, 1.3679e-005
181.52700, 37.71253, 1.5068e-003, 1.2989e-005
182.02700, 37.82392, 1.5134e-003, 1.3124e-005
182.52700, 37.93566, 1.5196e-003, 1.3160e-005
183.02700, 38.04721, 1.5262e-003, 1.3019e-005
183.52700, 38.15893, 1.5329e-003, 1.2913e-005
184.02700, 38.27063, 1.5397e-003, 1.3227e-005
184.52700, 38.38220, 1.5461e-003, 1.2986e-005
185.02700, 38.49399, 1.5524e-003, 1.2796e-005
185.52700, 38.60602, 1.5588e-003, 1.3098e-005
186.02700, 38.71793, 1.5654e-003, 1.2974e-005
186.52700, 38.82983, 1.5718e-003, 1.3176e-005
187.02700, 38.94164, 1.5784e-003, 1.3386e-005
187.52700, 39.05367, 1.5854e-003, 1.3683e-005
188.02700, 39.16567, 1.5919e-003, 1.3019e-005
188.52700, 39.27757, 1.5986e-003, 1.3278e-005
189.02700, 39.38944, 1.6051e-003, 1.3258e-005
189.52700, 39.50145, 1.6118e-003, 1.3458e-005
190.02700, 39.61355, 1.6185e-003, 1.3080e-005
190.52700, 39.72558, 1.6253e-003, 1.3217e-005
191.02700, 39.83776, 1.6317e-003, 1.2905e-005
191.52700, 39.94985, 1.6384e-003, 1.3991e-005
192.02700, 40.06222, 1.6454e-003, 1.2856e-005
192.52700, 40.17452, 1.6513e-003, 1.3165e-005
193.02700, 40.28681, 1.6580e-003, 1.2990e-005
193.52700, 40.39938, 1.6645e-003, 1.3183e-005
194.02700, 40.51219, 1.6715e-003, 1.3333e-005
194.52700, 40.62513, 1.6779e-003, 1.3032e-005
195.02700, 40.73807, 1.6843e-003, 1.3237e-005
195.52700, 40.85136, 1.6911e-003, 1.3119e-005
196.02700, 40.96473, 1.6977e-003, 1.3123e-005
196.52700, 41.07827, 1.7045e-003, 1.3434e-005
197.02700, 41.19138, 1.7108e-003, 1.3613e-005
197.52700, 41.30457, 1.7176e-003, 1.3386e-005
198.02700, 41.41789, 1.7243e-003, 1.2953e-005
198.52700, 41.53114, 1.7311e-003, 1.3543e-005
199.02700, 41.64434, 1.7378e-003, 1.3806e-005
199.52700, 41.75767, 1.7446e-003, 1.3775e-005
200.02700, 41.87130, 1.7513e-003, 1.3412e-005
200.52700, 41.98527, 1.7585e-003, 1.3642e-005
201.02700, 42.09913, 1.7650e-003, 1.3529e-005
201.52700, 42.21315, 1.7719e-003, 1.3535e-005
202.02700, 42.32738, 1.7785e-003, 1.3849e-005
202.52700, 42.44178, 1.7857e-003, 1.3980e-005
203.02700, 42.55631, 1.7924e-003, 1.3158e-005
203.52700, 42.67100, 1.7991e-003, 1.3844e-005
204.02700, 42.78593, 1.8061e-003, 1.3977e-005
204.52700, 42.90121, 1.8131e-003, 1.3434e-005
205.02700, 43.01644, 1.8197e-003, 1.4133e-005
205.52700, 43.13187, 1.8268e-003, 1.3870e-005
206.02700, 43.24733, 1.8336e-003, 1.3371e-005
206.52700, 43.36313, 1.8406e-003, 1.4217e-005
207.02700, 43.47898, 1.8476e-003, 1.3698e-005
207.52700, 43.59491, 1.8548e-003, 1.4285e-005
208.02700, 43.71127, 1.8614e-003, 1.3900e-005
208.52700, 43.82761, 1.8684e-003, 1.3552e-005
209.02700, 43.94410, 1.8751e-003, 1.4048e-005
209.52700, 44.06070, 1.8824e-003, 1.4025e-005
210.02700, 44.17732, 1.8894e-003, 1.3710e-005
210.52700, 44.29403, 1.8959e-003, 1.3477e-005
211.02700, 44.41066, 1.9028e-003, 1.3687e-005
211.52700, 44.52778, 1.9097e-003, 1.3857e-005
212.02700, 44.64505, 1.9165e-003, 1.3857e-005
212.52700, 44.76215, 1.9233e-003, 1.3359e-005
213.02700, 44.87939, 1.9301e-003, 1.3305e-005
213.52700, 44.99616, 1.9365e-003, 1.2885e-005
214.02700, 45.11281, 1.9430e-003, 1.3026e-005
214.52700, 45.22909, 1.9495e-003, 1.2971e-005
215.02700, 45.34507, 1.9561e-003, 1.3083e-005
215.52700, 45.46081, 1.9629e-003, 1.2842e-005
216.02700, 45.57629, 1.9690e-003, 1.2913e-005
216.52700, 45.69177, 1.9753e-003, 1.2985e-005
217.02700, 45.80692, 1.9819e-003, 1.2652e-005
217.52700, 45.92158, 1.9882e-003, 1.2510e-005
218.02700, 46.03603, 1.9945e-003, 1.2868e-005
218.52700, 46.15026, 2.0009e-003, 1.2945e-005
219.02700, 46.26394, 2.0075e-003, 1.2416e-005
219.52700, 46.37742, 2.0135e-003, 1.2725e-005
220.02700, 46.49085, 2.0199e-003, 1.2376e-005
220.52700, 46.60394, 2.0262e-003, 1.2636e-005
221.02700, 46.71699, 2.0324e-003, 1.2269e-005
221.52700, 46.82980, 2.0386e-003, 1.2318e-005
222.02700, 46.94244, 2.0447e-003, 1.2530e-005
222.52700, 47.05491, 2.0509e-003, 1.2331e-005
223.02700, 47.16716, 2.0571e-003, 1.2422e-005
223.52700, 47.27954, 2.0632e-003, 1.2352e-005
224.02700, 47.39188, 2.0695e-003, 1.2204e-005
224.52700, 47.50395, 2.0757e-003, 1.2702e-005
225.02700, 47.61583, 2.0820e-003, 1.2338e-005
225.52700, 47.72775, 2.0884e-003, 1.2807e-005
226.02700, 47.83962, 2.0948e-003, 1.2828e-005
226.52700, 47.95141, 2.1011e-003, 1.2655e-005
227.02700, 48.06297, 2.1073e-003, 1.2466e-005
227.52700, 48.17434, 2.1138e-003, 1.3031e-005
228.02700, 48.28628, 2.1202e-003, 1.2763e-005
228.52700, 48.39832, 2.1265e-003, 1.2518e-005
229.02700, 48.51024, 2.1330e-003, 1.2907e-005
229.52700, 48.62210, 2.1395e-003, 1.3225e-005
230.02700, 48.73410, 2.1461e-003, 1.3027e-005
230.52700, 48.84618, 2.1524e-003, 1.2942e-005
231.02700, 48.95833, 2.1590e-003, 1.3157e-005
231.52700, 49.07037, 2.1654e-003, 1.3060e-005
232.02700, 49.18262, 2.1722e-003, 1.2821e-005
232.52700, 49.29518, 2.1788e-003, 1.2940e-005
233.02700, 49.40813, 2.1851e-003, 1.2994e-005
233.52700, 49.52125, 2.1918e-003, 1.3538e-005
234.02700, 49.63464, 2.1985e-003, 1.3382e-005
234.52700, 49.74826, 2.2049e-003, 1.3309e-005
235.02700, 49.86214, 2.2119e-003, 1.3684e-005
235.52700, 49.97619, 2.2189e-003, 1.3800e-005
236.02700, 50.09022, 2.2260e-003, 1.3829e-005
236.52700, 50.20450, 2.2323e-003, 1.3427e-005
237.02700, 50.31894, 2.2393e-003, 1.3352e-005
237.52700, 50.43377, 2.2457e-003, 1.4051e-005
238.02700, 50.54908, 2.2528e-003, 1.3423e-005
238.52700, 50.66468, 2.2596e-003, 1.3687e-005
239.02700, 50.78047, 2.2662e-003, 1.3689e-005
239.52700, 50.89611, 2.2730e-003, 1.3711e-005
240.02700, 51.01187, 2.2798e-003, 1.3337e-005
240.52700, 51.12789, 2.2867e-003, 1.3473e-005
241.02700, 51.24356, 2.2937e-003, 1.3962e-005
241.52700, 51.35939, 2.3004e-003, 1.3617e-005
242.02700, 51.47552, 2.3071e-003, 1.3445e-005
242.52700, 51.59208, 2.3140e-003, 1.3366e-005
243.02700, 51.70895, 2.3206e-003, 1.3483e-005
243.52700, 51.82580, 2.3272e-003, 1.3483e-005
244.02700, 51.94309, 2.3342e-003, 1.4185e-005
244.52700, 52.06051, 2.3410e-003, 1.3165e-005
245.02700, 52.17814, 2.3479e-003, 1.3649e-005
245.52700, 52.29574, 2.3546e-003, 1.3330e-005
246.02700, 52.41311, 2.3613e-003, 1.3836e-005
246.52700, 52.53077, 2.3680e-003, 1.3366e-005
247.02700, 52.64826, 2.3748e-003, 1.3488e-005
247.52700, 52.76588, 2.3816e-003, 1.3563e-005
248.02700, 52.88346, 2.3887e-003, 1.3516e-005
248.52700, 53.00131, 2.3953e-003, 1.3145e-005
249.02700, 53.11954, 2.4017e-003, 1.3581e-005
249.52700, 53.23781, 2.4084e-003, 1.3568e-005
250.02700, 53.35654, 2.4154e-003, 1.3188e-005
250.52700, 53.47535, 2.4220e-003, 1.3130e-005
251.02700, 53.59455, 2.4285e-003, 1.3617e-005
251.52700, 53.71402, 2.4352e-003, 1.3493e-005
252.02700, 53.83363, 2.4419e-003, 1.3635e-005
252.52700, 53.95320, 2.4486e-003, 1.3526e-005
253.02700, 54.07262, 2.4557e-003, 1.3879e-005
253.52700, 54.19229, 2.4624e-003, 1.3716e-005
254.02700, 54.31216, 2.4695e-003, 1.3514e-005
254.52700, 54.43216, 2.4760e-003, 1.3552e-005
255.02700, 54.55255, 2.4827e-003, 1.3121e-005
255.52700, 54.67340, 2.4894e-003, 1.3765e-005
256.02700, 54.79457, 2.4964e-003, 1.3533e-005
256.52700, 54.91590, 2.5033e-003, 1.3961e-005
257.02700, 55.03745, 2.5098e-003, 1.3220e-005
257.52700, 55.15912, 2.5167e-003, 1.3861e-005
258.02700, 55.28090, 2.5236e-003, 1.3599e-005
258.52700, 55.40290, 2.5304e-003, 1.3666e-005
259.02700, 55.52531, 2.5373e-003, 1.3642e-005
259.52700, 55.64789, 2.5443e-003, 1.4017e-005
260.02700, 55.77054, 2.5510e-003, 1.3849e-005
260.52700, 55.89306, 2.5582e-003, 1.3940e-005
261.02700, 56.01567, 2.5649e-003, 1.3741e-005
261.52700, 56.13818, 2.5719e-003, 1.3682e-005
262.02700, 56.26071, 2.5786e-003, 1.3655e-005
262.52700, 56.38311, 2.5855e-003, 1.3518e-005
263.02700, 56.50554, 2.5921e-003, 1.3960e-005
263.52700, 56.62835, 2.5993e-003, 1.3597e-005
264.02700, 56.75118, 2.6061e-003, 1.3617e-005
264.52700, 56.87417, 2.6127e-003, 1.3389e-005
265.02700, 56.99723, 2.6194e-003, 1.3482e-005
265.52700, 57.12039, 2.6263e-003, 1.3972e-005
266.02700, 57.24351, 2.6335e-003, 1.4296e-005
266.52700, 57.36702, 2.6407e-003, 1.4089e-005
267.02700, 57.49070, 2.6475e-003, 1.3510e-005
267.52700, 57.61472, 2.6543e-003, 1.4015e-005
268.02700, 57.73907, 2.6612e-003, 1.3278e-005
268.52700, 57.86353, 2.6680e-003, 1.3962e-005
269.02700, 57.98840, 2.6750e-003, 1.3836e-005
269.52700, 58.11314, 2.6817e-003, 1.3668e-005
270.02700, 58.23791, 2.6886e-003, 1.3330e-005
270.52700, 58.36301, 2.6955e-003, 1.3906e-005
271.02700, 58.48788, 2.7021e-003, 1.3629e-005
271.52700, 58.61307, 2.7088e-003, 1.3336e-005
272.02700, 58.73820, 2.7158e-003, 1.3207e-005
272.52700, 58.86357, 2.7227e-003, 1.3952e-005
273.02700, 58.98910, 2.7289e-003, 1.3641e-005
273.52700, 59.11442, 2.7360e-003, 1.3620e-005
274.02700, 59.23998, 2.7429e-003, 1.3935e-005
274.52700, 59.36573, 2.7499e-003, 1.3558e-005
275.02700, 59.49161, 2.7566e-003, 1.4001e-005
275.52700, 59.61741, 2.7638e-003, 1.3585e-005
276.02700, 59.74308, 2.7705e-003, 1.3941e-005
276.52700, 59.86910, 2.7771e-003, 1.3295e-005
277.02700, 59.99521, 2.7839e-003, 1.3326e-005
277.52700, 60.12156, 2.7909e-003, 1.3482e-005
278.02700, 60.24798, 2.7975e-003, 1.3517e-005
278.52700, 60.37471, 2.8043e-003, 1.3279e-005
279.02700, 60.50167, 2.8109e-003, 1.3754e-005
279.52700, 60.62834, 2.8176e-003, 1.3266e-005
280.02700, 60.75505, 2.8242e-003, 1.3334e-005
280.52700, 60.88143, 2.8312e-003, 1.3532e-005
281.02700, 61.00785, 2.8376e-003, 1.2935e-005
281.52700, 61.13438, 2.8443e-003, 1.3692e-005
282.02700, 61.26082, 2.8512e-003, 1.3227e-005
282.52700, 61.38761, 2.8578e-003, 1.3528e-005
283.02700, 61.51450, 2.8645e-003, 1.3869e-005
283.52700, 61.64156, 2.8714e-003, 1.3263e-005
284.02700, 61.76860, 2.8782e-003, 1.3297e-005
284.52700, 61.89581, 2.8848e-003, 1.3314e-005
285.02700, 62.02333, 2.8913e-003, 1.3538e-005
285.52700, 62.15090, 2.8982e-003, 1.3226e-005
286.02700, 62.27850, 2.9049e-003, 1.4018e-005
286.52700, 62.40605, 2.9116e-003, 1.3239e-005
287.02700, 62.53378, 2.9184e-003, 1.3699e-005
287.52700, 62.66147, 2.9250e-003, 1.3481e-005
288.02700, 62.78905, 2.9318e-003, 1.3186e-005
288.52700, 62.91702, 2.9384e-003, 1.3291e-005
289.02700, 63.04509, 2.9449e-003, 1.3156e-005
289.52700, 63.17337, 2.9518e-003, 1.3441e-005
290.02700, 63.30188, 2.9586e-003, 1.3447e-005
290.52700, 63.43069, 2.9650e-003, 1.2964e-005
291.02700, 63.55948, 2.9717e-003, 1.3526e-005
291.52700, 63.68871, 2.9785e-003, 1.3569e-005
292.02700, 63.81798, 2.9855e-003, 1.3363e-005
292.52700, 63.94731, 2.9918e-003, 1.3658e-005
293.02700, 64.07693, 2.9989e-003, 1.4136e-005
293.52700, 64.20675, 3.0055e-003, 1.3020e-005
294.02700, 64.33644, 3.0125e-003, 1.3582e-005
294.52700, 64.46568, 3.0191e-003, 1.3369e-005
295.02700, 64.59498, 3.0257e-003, 1.3463e-005
295.52700, 64.72408, 3.0322e-003, 1.3064e-005
296.02700, 64.85325, 3.0393e-003, 1.3244e-005
296.52700, 64.98238, 3.0456e-003, 1.3520e-005
297.02700, 65.11193, 3.0527e-003, 1.3749e-005
297.52700, 65.24197, 3.0592e-003, 1.3089e-005
298.02700, 65.37195, 3.0660e-003, 1.3609e-005
298.52700, 65.50187, 3.0728e-003, 1.3552e-005
299.02700, 65.63183, 3.0796e-003, 1.3365e-005
299.52700, 65.76193, 3.0864e-003, 1.3298e-005
300.02700, 65.89155, 3.0929e-003, 1.3765e-005
300.52700, 66.02126, 3.0996e-003, 1.2899e-005
301.02700, 66.15126, 3.1060e-003, 1.3587e-005
301.52700, 66.28142, 3.1130e-003, 1.3229e-005
302.02700, 66.41155, 3.1196e-003, 1.3604e-005
302.52700, 66.54208, 3.1262e-003, 1.3576e-005
303.02700, 66.67271, 3.1332e-003, 1.3356e-005
303.52700, 66.80346, 3.1396e-003, 1.3419e-005
304.02700, 66.93411, 3.1461e-003, 1.3030e-005
304.52700, 67.06484, 3.1529e-003, 1.3181e-005
305.02700, 67.19560, 3.1597e-003, 1.3311e-005
305.52700, 67.32616, 3.1665e-003, 1.3114e-005
306.02700, 67.45714, 3.1729e-003, 1.3126e-005
306.52700, 67.58801, 3.1795e-003, 1.3021e-005
307.02700, 67.71914, 3.1860e-003, 1.3437e-005
307.52700, 67.84984, 3.1927e-003, 1.3605e-005
308.02700, 67.98098, 3.1992e-003, 1.3291e-005
308.52700, 68.11191, 3.2060e-003, 1.2890e-005
309.02700, 68.24330, 3.2125e-003, 1.3146e-005
309.52700, 68.37457, 3.2192e-003, 1.3721e-005
310.02700, 68.50640, 3.2256e-003, 1.3195e-005
310.52700, 68.63804, 3.2323e-003, 1.3268e-005
311.02700, 68.76990, 3.2390e-003, 1.3677e-005
311.52700, 68.90175, 3.2455e-003, 1.3477e-005
312.02700, 69.03345, 3.2525e-003, 1.3446e-005
312.52700, 69.16569, 3.2591e-003, 1.3348e-005
313.02700, 69.29779, 3.2662e-003, 1.3316e-005
313.52700, 69.43017, 3.2726e-003, 1.3404e-005
314.02700, 69.56246, 3.2795e-003, 1.3459e-005
314.52700, 69.69474, 3.2859e-003, 1.3685e-005
315.02700, 69.82675, 3.2932e-003, 1.3512e-005
315.52700, 69.95895, 3.2998e-003, 1.3432e-005
316.02700, 70.09114, 3.3064e-003, 1.3429e-005
316.52700, 70.22342, 3.3135e-003, 1.3402e-005
317.02700, 70.35594, 3.3201e-003, 1.3223e-005
317.52700, 70.48844, 3.3268e-003, 1.3297e-005
318.02700, 70.62099, 3.3332e-003, 1.3570e-005
318.52700, 70.75369, 3.3398e-003, 1.3464e-005
319.02700, 70.88661, 3.3465e-003, 1.3528e-005
319.52700, 71.01970, 3.3535e-003, 1.3359e-005
320.02700, 71.15293, 3.3603e-003, 1.3065e-005
320.52700, 71.28623, 3.3666e-003, 1.3126e-005
321.02700, 71.41967, 3.3732e-003, 1.4012e-005
321.52700, 71.55320, 3.3801e-003, 1.3367e-005
322.02700, 71.68712, 3.3867e-003, 1.3114e-005
322.52700, 71.82095, 3.3934e-003, 1.3594e-005
323.02700, 71.95505, 3.4001e-003, 1.3256e-005
323.52700, 72.08888, 3.4070e-003, 1.3890e-005
324.02700, 72.22275, 3.4138e-003, 1.3313e-005
324.52700, 72.35628, 3.4205e-003, 1.3701e-005
325.02700, 72.48960, 3.4271e-003, 1.3159e-005
325.52700, 72.62331, 3.4339e-003, 1.3564e-005
326.02700, 72.75734, 3.4409e-003, 1.3502e-005
326.52700, 72.89160, 3.4472e-003, 1.2998e-005
327.02700, 73.02587, 3.4540e-003, 1.3790e-005
327.52700, 73.16031, 3.4606e-003, 1.3384e-005
328.02700, 73.29469, 3.4675e-003, 1.3450e-005
328.52700, 73.42916, 3.4747e-003, 1.4149e-005
329.02700, 73.56371, 3.4810e-003, 1.3498e-005
329.52700, 73.69864, 3.4876e-003, 1.3120e-005
330.02700, 73.83358, 3.4944e-003, 1.3868e-005
330.52700, 73.96864, 3.5014e-003, 1.3480e-005
331.02700, 74.10367, 3.5079e-003, 1.3516e-005
331.52700, 74.23874, 3.5149e-003, 1.3288e-005
332.02700, 74.37377, 3.5216e-003, 1.3331e-005
332.52700, 74.50898, 3.5282e-003, 1.3746e-005
333.02700, 74.64422, 3.5350e-003, 1.3277e-005
333.52700, 74.77942, 3.5420e-003, 1.4110e-005
334.02700, 74.91467, 3.5488e-003, 1.3540e-005
334.52700, 75.04996, 3.5554e-003, 1.3603e-005
335.02700, 75.18520, 3.5621e-003, 1.2866e-005
335.52700, 75.32050, 3.5686e-003, 1.3318e-005
336.02700, 75.45568, 3.5750e-003, 1.3352e-005
336.52700, 75.59102, 3.5817e-003, 1.2872e-005
337.02700, 75.72644, 3.5883e-003, 1.3381e-005
337.52700, 75.86186, 3.5949e-003, 1.3022e-005
338.02700, 75.99741, 3.6017e-003, 1.3984e-005
338.52700, 76.13346, 3.6086e-003, 1.3251e-005
339.02700, 76.26928, 3.6152e-003, 1.3545e-005
339.52700, 76.40527, 3.6220e-003, 1.3653e-005
340.02700, 76.54131, 3.6288e-003, 1.3616e-005
340.52700, 76.67759, 3.6352e-003, 1.3276e-005
341.02700, 76.81371, 3.6421e-003, 1.3273e-005
341.52700, 76.95003, 3.6487e-003, 1.3521e-005
342.02700, 77.08640, 3.6555e-003, 1.3345e-005
342.52700, 77.22312, 3.6619e-003, 1.3196e-005
343.02700, 77.35974, 3.6687e-003, 1.3170e-005
343.52700, 77.49631, 3.6757e-003, 1.3963e-005
344.02700, 77.63290, 3.6825e-003, 1.3598e-005
344.52700, 77.76990, 3.6893e-003, 1.3477e-005
345.02700, 77.90681, 3.6959e-003, 1.3795e-005
345.52700, 78.04390, 3.7027e-003, 1.3244e-005
346.02700, 78.18114, 3.7093e-003, 1.3722e-005
346.52700, 78.31880, 3.7162e-003, 1.3376e-005
347.02700, 78.45595, 3.7228e-003, 1.4015e-005
347.52700, 78.59307, 3.7297e-003, 1.3256e-005
348.02700, 78.73007, 3.7363e-003, 1.3546e-005
348.52700, 78.86743, 3.7431e-003, 1.3077e-005
349.02700, 79.00454, 3.7497e-003, 1.3535e-005
349.52700, 79.14215, 3.7567e-003, 1.3375e-005
350.02700, 79.28023, 3.7633e-003, 1.3427e-005
350.52700, 79.41853, 3.7701e-003, 1.3921e-005
351.02700, 79.55656, 3.7767e-003, 1.3573e-005
351.52700, 79.69492, 3.7837e-003, 1.3269e-005
352.02700, 79.83326, 3.7904e-003, 1.2972e-005
352.52700, 79.97127, 3.7966e-003, 1.3241e-005
353.02700, 80.10921, 3.8031e-003, 1.3192e-005
353.52700, 80.24752, 3.8098e-003, 1.3775e-005
354.02700, 80.38575, 3.8164e-003, 1.2969e-005
354.52700, 80.52405, 3.8231e-003, 1.3209e-005
355.02700, 80.66270, 3.8300e-003, 1.3615e-005
355.52700, 80.80159, 3.8368e-003, 1.3490e-005
356.02700, 80.94026, 3.8432e-003, 1.3203e-005
356.52700, 81.07910, 3.8500e-003, 1.3198e-005
357.02700, 81.21789, 3.8567e-003, 1.3691e-005
357.52700, 81.35663, 3.8635e-003, 1.3290e-005
358.02700, 81.49551, 3.8700e-003, 1.3325e-005
358.52700, 81.63462, 3.8770e-003, 1.3040e-005
359.02700, 81.77357, 3.8836e-003, 1.4040e-005
359.52700, 81.91263, 3.8903e-003, 1.3465e-005
360.02700, 82.05169, 3.8975e-003, 1.3762e-005
360.52700, 82.19077, 3.9042e-003, 1.3291e-005
361.02700, 82.33004, 3.9107e-003, 1.3265e-005
361.52700, 82.46977, 3.9177e-003, 1.3523e-005
362.02700, 82.60967, 3.9243e-003, 1.3373e-005
362.52700, 82.74989, 3.9310e-003, 1.3511e-005
363.02700, 82.89018, 3.9376e-003, 1.3972e-005
363.52700, 83.03047, 3.9445e-003, 1.3699e-005
364.02700, 83.17050, 3.9512e-003, 1.3371e-005
364.52700, 83.31049, 3.9580e-003, 1.3410e-005
365.02700, 83.45065, 3.9647e-003, 1.3123e-005
365.52700, 83.59075, 3.9713e-003, 1.3758e-005
366.02700, 83.73091, 3.9816e-003, 2.9859e-005
366.52700, 83.87142, 3.9925e-003, 1.5327e-005
367.02700, 84.01200, 3.9999e-003, 1.4328e-005
367.52700, 84.15258, 4.0068e-003, 1.3760e-005
368.02700, 84.29319, 4.0138e-003, 1.3952e-005
368.52700, 84.43366, 4.0209e-003, 1.4594e-005
369.02700, 84.57394, 4.0280e-003, 1.4200e-005
369.52700, 84.71428, 4.0350e-003, 1.3963e-005
370.02700, 84.85470, 4.0419e-003, 1.3555e-005
370.52700, 84.99527, 4.0486e-003, 1.3020e-005
371.02700, 85.13624, 4.0552e-003, 1.3977e-005
371.52700, 85.27736, 4.0623e-003, 1.3892e-005
372.02700, 85.41856, 4.0692e-003, 1.3866e-005
372.52700, 85.55975, 4.0760e-003, 1.3862e-005
373.02700, 85.70110, 4.0830e-003, 1.3363e-005
373.52700, 85.84208, 4.0897e-003, 1.3969e-005
374.02700, 85.98320, 4.0964e-003, 1.3473e-005
374.52700, 86.12454, 4.1033e-003, 1.3542e-005
375.02700, 86.26596, 4.1104e-003, 1.3977e-005
375.52700, 86.40759, 4.1171e-003, 1.3842e-005
376.02700, 86.54961, 4.1242e-003, 1.3728e-005
376.52700, 86.69184, 4.1309e-003, 1.3923e-005
377.02700, 86.83420, 4.1379e-003, 1.3846e-005
377.52700, 86.97675, 4.1448e-003, 1.3710e-005
378.02700, 87.11929, 4.1516e-003, 1.3664e-005
378.52700, 87.26204, 4.1585e-003, 1.3899e-005
379.02700, 87.40489, 4.1655e-003, 1.4351e-005
379.52700, 87.54776, 4.1726e-003, 1.3598e-005
380.02700, 87.69066, 4.1794e-003, 1.3878e-005
380.52700, 87.83354, 4.1863e-003, 1.3977e-005
381.02700, 87.97668, 4.1933e-003, 1.4169e-005
381.52700, 88.11972, 4.2002e-003, 1.3584e-005
382.02700, 88.26277, 4.2072e-003, 1.3709e-005
382.52700, 88.40607, 4.2142e-003, 1.3698e-005
383.02700, 88.54942, 4.2209e-003, 1.3721e-005
383.52700, 88.69285, 4.2279e-003, 1.3478e-005
384.02700, 88.83650, 4.2346e-003, 1.3670e-005
384.52700, 88.97994, 4.2411e-003, 1.3900e-005
385.02700, 89.12316, 4.2480e-003, 1.3246e-005
385.52700, 89.26655, 4.2549e-003, 1.3923e-005
386.02700, 89.40982, 4.2621e-003, 1.4629e-005
386.52700, 89.55287, 4.2693e-003, 1.4016e-005
387.02700, 89.69622, 4.2763e-003, 1.4097e-005
387.52700, 89.83988, 4.2832e-003, 1.3710e-005
388.02700, 89.98381, 4.2902e-003, 1.3526e-005
388.52700, 90.12767, 4.2970e-003, 1.4200e-005
389.02700, 90.27180, 4.3039e-003, 1.3729e-005
389.52700, 90.41605, 4.3109e-003, 1.3641e-005
390.02700, 90.55996, 4.3179e-003, 1.4052e-005
390.52700, 90.70381, 4.3248e-003, 1.3870e-005
391.02700, 90.84773, 4.3318e-003, 1.4319e-005
391.52700, 90.99141, 4.3387e-003, 1.3776e-005
392.02700, 91.13536, 4.3457e-003, 1.4000e-005
392.52700, 91.28005, 4.3527e-003, 1.3533e-005
393.02700, 91.42497, 4.3596e-003, 1.3669e-005
393.52700, 91.57006, 4.3666e-003, 1.4124e-005
394.02700, 91.71560, 4.3734e-003, 1.3949e-005
394.52700, 91.86124, 4.3803e-003, 1.3528e-005
395.02700, 92.00668, 4.3872e-003, 1.4377e-005
395.52700, 92.15186, 4.3943e-003, 1.3394e-005
396.02700, 92.29747, 4.4015e-003, 1.3904e-005
396.52700, 92.44326, 4.4081e-003, 1.3898e-005
397.02700, 92.58889, 4.4149e-003, 1.4319e-005
397.52700, 92.73468, 4.4220e-003, 1.3661e-005
398.02700, 92.88068, 4.4287e-003, 1.3941e-005
398.52700, 93.02662, 4.4356e-003, 1.3572e-005
399.02700, 93.17236, 4.4426e-003, 1.3881e-005
399.52700, 93.31828, 4.4491e-003, 1.3850e-005
400.02700, 93.46387, 4.4562e-003, 1.3634e-005
400.52700, 93.60923, 4.4632e-003, 1.3754e-005
401.02700, 93.75469, 4.4703e-003, 1.4179e-005
401.52700, 93.90063, 4.4773e-003, 1.4619e-005
402.02700, 94.04676, 4.4844e-003, 1.3974e-005
402.52700, 94.19315, 4.4913e-003, 1.4067e-005
403.02700, 94.33986, 4.4983e-003, 1.3920e-005
403.52700, 94.48641, 4.5052e-003, 1.3837e-005
404.02700, 94.63298, 4.5120e-003, 1.3636e-005
404.52700, 94.77923, 4.5189e-003, 1.3994e-005
405.02700, 94.92548, 4.5260e-003, 1.4115e-005
405.52700, 95.07173, 4.5332e-003, 1.3720e-005
406.02700, 95.21787, 4.5399e-003, 1.3675e-005
406.52700, 95.36398, 4.5469e-003, 1.3656e-005
407.02700, 95.51042, 4.5538e-003, 1.4255e-005
407.52700, 95.65704, 4.5607e-003, 1.4035e-005
408.02700, 95.80431, 4.5679e-003, 1.3540e-005
408.52700, 95.95191, 4.5748e-003, 1.3476e-005
409.02700, 96.09933, 4.5816e-003, 1.4250e-005
409.52700, 96.24696, 4.5884e-003, 1.3641e-005
410.02700, 96.39471, 4.5955e-003, 1.3694e-005
410.52700, 96.54166, 4.6023e-003, 1.3979e-005
411.02700, 96.68900, 4.6095e-003, 1.3830e-005
411.52700, 96.83687, 4.6163e-003, 1.3921e-005
412.02700, 96.98496, 4.6237e-003, 1.4026e-005
412.52700, 97.13331, 4.6304e-003, 1.3559e-005
413.02700, 97.28181, 4.6371e-003, 1.3870e-005
413.52700, 97.43010, 4.6441e-003, 1.3867e-005
414.02700, 97.57844, 4.6510e-003, 1.4080e-005
414.52700, 97.72678, 4.6578e-003, 1.3950e-005
415.02700, 97.87531, 4.6649e-003, 1.4079e-005
415.52700, 98.02432, 4.6718e-003, 1.3365e-005
416.02700, 98.17341, 4.6789e-003, 1.4058e-005
416.52700, 98.32241, 4.6860e-003, 1.3980e-005
417.02700, 98.47107, 4.6930e-003, 1.4393e-005
417.52700, 98.61972, 4.7001e-003, 1.4176e-005
418.02700, 98.76858, 4.7072e-003, 1.4721e-005
418.52700, 98.91745, 4.7143e-003, 1.3903e-005
419.02700, 99.06659, 4.7211e-003, 1.4267e-005
419.52700, 99.21547, 4.7283e-003, 1.4092e-005
420.02700, 99.36435, 4.7354e-003, 1.3861e-005
420.52700, 99.51301, 4.7423e-003, 1.4440e-005
421.02700, 99.66197, 4.7496e-003, 1.3722e-005
421.52700, 99.81103, 4.7566e-003, 1.3970e-005
422.02700, 99.96033, 4.7632e-003, 1.3932e-005
422.52700,100.10986, 4.7704e-003, 1.4135e-005
423.02700,100.25958, 4.7775e-003, 1.4485e-005
423.52700,100.40927, 4.7848e-003, 1.4191e-005
424.02700,100.55910, 4.7918e-003, 1.3690e-005
424.52700,100.70887, 4.7989e-003, 1.5148e-005
425.02700,100.85858, 4.8062e-003, 1.4373e-005
425.52700,101.00870, 4.8134e-003, 1.4300e-005
426.02700,101.15861, 4.8204e-003, 1.3727e-005
426.52700,101.30864, 4.8274e-003, 1.4228e-005
427.02700,101.45875, 4.8343e-003, 1.3671e-005
427.52700,101.60890, 4.8411e-003, 1.3892e-005
428.02700,101.75883, 4.8483e-003, 1.4627e-005
428.52700,101.90914, 4.8554e-003, 1.4557e-005
429.02700,102.05915, 4.8629e-003, 1.4030e-005
429.52700,102.20939, 4.8699e-003, 1.4373e-005
430.02700,102.35984, 4.8770e-003, 1.3947e-005
430.52700,102.51037, 4.8841e-003, 1.4342e-005
431.02700,102.66110, 4.8913e-003, 1.3924e-005
431.52700,102.81211, 4.8984e-003, 1.4783e-005
432.02700,102.96325, 4.9056e-003, 1.4790e-005
432.52700,103.11486, 4.9130e-003, 1.4711e-005
433.02700,103.26668, 4.9206e-003, 1.4510e-005
433.52700,103.41906, 4.9278e-003, 1.4855e-005
434.02700,103.57198, 4.9350e-003, 1.4654e-005
434.52700,103.72602, 4.9426e-003, 1.4931e-005
435.02700,103.88044, 4.9502e-003, 1.5070e-005
435.52700,104.03548, 4.9575e-003, 1.4464e-005
436.02700,104.19067, 4.9647e-003, 1.4337e-005
436.52700,104.34602, 4.9722e-003, 1.4300e-005
437.02700,104.50081, 4.9791e-003, 1.4830e-005
437.52700,104.65554, 4.9865e-003, 1.4243e-005
438.02700,104.80989, 4.9937e-003, 1.4086e-005
438.52700,104.96396, 5.0008e-003, 1.4309e-005
439.02700,105.11758, 5.0079e-003, 1.3865e-005
439.52700,105.27069, 5.0149e-003, 1.3534e-005
440.02700,105.42342, 5.0216e-003, 1.3396e-005
440.52700,105.57573, 5.0286e-003, 1.3612e-005
441.02700,105.72761, 5.0352e-003, 1.3393e-005
441.52700,105.87933, 5.0420e-003, 1.3582e-005
442.02700,106.03081, 5.0486e-003, 1.3685e-005
442.52700,106.18153, 5.0555e-003, 1.3645e-005
443.02700,106.33155, 5.0620e-003, 1.2824e-005
443.52700,106.48069, 5.0686e-003, 1.3103e-005
444.02700,106.62916, 5.0753e-003, 1.2797e-005
444.52700,106.77688, 5.0819e-003, 1.3600e-005
445.02700,106.92407, 5.0888e-003, 1.3427e-005
445.52700,107.07078, 5.0956e-003, 1.3415e-005
446.02700,107.21715, 5.1023e-003, 1.3345e-005
446.52700,107.36321, 5.1088e-003, 1.3431e-005
447.02700,107.50912, 5.1156e-003, 1.3314e-005
447.52700,107.65505, 5.1225e-003, 1.3573e-005
448.02700,107.80133, 5.1294e-003, 1.3732e-005
448.52700,107.94772, 5.1357e-003, 1.3902e-005
449.02700,108.09448, 5.1428e-003, 1.3679e-005
449.52700,108.24142, 5.1497e-003, 1.3697e-005
450.02700,108.38874, 5.1565e-003, 1.3552e-005
450.52700,108.53612, 5.1633e-003, 1.4102e-005
451.02700,108.68372, 5.1703e-003, 1.3563e-005
451.52700,108.83139, 5.1773e-003, 1.3989e-005
452.02700,108.97936, 5.1839e-003, 1.3607e-005
452.52700,109.12747, 5.1910e-003, 1.4614e-005
453.02700,109.27603, 5.1983e-003, 1.4235e-005
453.52700,109.42498, 5.2049e-003, 1.3754e-005
454.02700,109.57431, 5.2122e-003, 1.4673e-005
454.52700,109.72405, 5.2191e-003, 1.3832e-005
455.02700,109.87420, 5.2262e-003, 1.3557e-005
455.52700,110.02463, 5.2330e-003, 1.4400e-005
456.02700,110.17556, 5.2401e-003, 1.3895e-005
456.52700,110.32675, 5.2473e-003, 1.4521e-005
457.02700,110.47798, 5.2544e-003, 1.4245e-005
457.52700,110.62923, 5.2617e-003, 1.4277e-005
458.02700,110.78035, 5.2688e-003, 1.4178e-005
458.52700,110.93151, 5.2757e-003, 1.4015e-005
459.02700,111.08280, 5.2829e-003, 1.4261e-005
459.52700,111.23439, 5.2899e-003, 1.3388e-005
460.02700,111.38590, 5.2970e-003, 1.4346e-005
460.52700,111.53774, 5.3037e-003, 1.4120e-005
461.02700,111.68992, 5.3107e-003, 1.3253e-005
461.52700,111.84264, 5.3174e-003, 1.3823e-005
462.02700,111.99536, 5.3247e-003, 1.4082e-005
462.52700,112.14840, 5.3316e-003, 1.4076e-005
463.02700,112.30212, 5.3384e-003, 1.4170e-005
463.52700,112.45562, 5.3455e-003, 1.4543e-005
464.02700,112.60977, 5.3526e-003, 1.3886e-005
464.52700,112.76462, 5.3600e-003, 1.4312e-005
465.02700,112.91982, 5.3668e-003, 1.4358e-005
465.52700,113.07516, 5.3740e-003, 1.3843e-005
466.02700,113.23078, 5.3812e-003, 1.3991e-005
466.52700,113.38645, 5.3876e-003, 1.4012e-005
467.02700,113.54252, 5.3949e-003, 1.3947e-005
467.52700,113.69819, 5.4019e-003, 1.4203e-005
468.02700,113.85396, 5.4084e-003, 1.2998e-005
468.52700,114.00989, 5.4157e-003, 1.3943e-005
469.02700,114.16549, 5.4221e-003, 1.3282e-005
469.52700,114.32099, 5.4290e-003, 1.3901e-005
470.02700,114.47663, 5.4361e-003, 1.3987e-005
470.52700,114.63250, 5.4430e-003, 1.3689e-005
471.02700,114.78865, 5.4494e-003, 1.3576e-005
471.52700,114.94515, 5.4559e-003, 1.3102e-005
472.02700,115.10196, 5.4629e-003, 1.3870e-005
472.52700,115.25890, 5.4697e-003, 1.3760e-005
473.02700,115.41582, 5.4767e-003, 1.3899e-005
473.52700,115.57338, 5.4837e-003, 1.4020e-005
474.02700,115.73079, 5.4904e-003, 1.3716e-005
474.52700,115.88853, 5.4975e-003, 1.3961e-005
475.02700,116.04634, 5.5043e-003, 1.4043e-005
475.52700,116.20421, 5.5116e-003, 1.3789e-005
476.02700,116.36213, 5.5187e-003, 1.4150e-005
476.52700,116.52078, 5.5256e-003, 1.4030e-005
477.02700,116.67950, 5.5328e-003, 1.4176e-005
477.52700,116.83870, 5.5396e-003, 1.4740e-005
478.02700,116.99808, 5.5469e-003, 1.4399e-005
478.52700,117.15746, 5.5540e-003, 1.3938e-005
479.02700,117.31704, 5.5610e-003, 1.4331e-005
479.52700,117.47663, 5.5679e-003, 1.3355e-005
480.02700,117.63646, 5.5751e-003, 1.4369e-005
480.52700,117.79639, 5.5821e-003, 1.4322e-005
481.02700,117.95633, 5.5891e-003, 1.4321e-005
481.52700,118.11616, 5.5963e-003, 1.4122e-005
482.02700,118.27586, 5.6036e-003, 1.4007e-005
482.52700,118.43570, 5.6103e-003, 1.4254e-005
483.02700,118.59521, 5.6175e-003, 1.3982e-005
483.52700,118.75465, 5.6243e-003, 1.3957e-005
484.02700,118.91414, 5.6316e-003, 1.4040e-005
484.52700,119.07363, 5.6385e-003, 1.4363e-005
485.02700,119.23366, 5.6455e-003, 1.4074e-005
485.52700,119.39416, 5.6527e-003, 1.4209e-005
486.02700,119.55481, 5.6597e-003, 1.4058e-005
486.52700,119.71568, 5.6667e-003, 1.4670e-005
487.02700,119.87647, 5.6741e-003, 1.4574e-005
487.52700,120.03740, 5.6812e-003, 1.4089e-005
488.02700,120.19842, 5.6882e-003, 1.4416e-005
488.52700,120.35943, 5.6952e-003, 1.3127e-005
489.02700,120.52062, 5.7023e-003, 1.4218e-005
489.52700,120.68150, 5.7092e-003, 1.4753e-005
490.02700,120.84205, 5.7165e-003, 1.3578e-005
490.52700,121.00246, 5.7235e-003, 1.4251e-005
491.02700,121.16306, 5.7307e-003, 1.4470e-005
491.52700,121.32406, 5.7379e-003, 1.4193e-005
492.02700,121.48543, 5.7450e-003, 1.4611e-005
492.52700,121.64721, 5.7521e-003, 1.4404e-005
493.02700,121.80903, 5.7591e-003, 1.4218e-005
493.52700,121.97066, 5.7664e-003, 1.4703e-005
494.02700,122.13186, 5.7738e-003, 1.4531e-005
494.52700,122.29356, 5.7810e-003, 1.4016e-005
495.02700,122.45533, 5.7881e-003, 1.4215e-005
495.52700,122.61725, 5.7948e-003, 1.4038e-005
496.02700,122.77954, 5.8018e-003, 1.4065e-005
496.52700,122.94163, 5.8090e-003, 1.4119e-005
497.02700,123.10354, 5.8159e-003, 1.4269e-005
497.52700,123.26550, 5.8231e-003, 1.4539e-005
498.02700,123.42741, 5.8306e-003, 1.4504e-005
498.52700,123.58935, 5.8373e-003, 1.4515e-005
499.02700,123.75149, 5.8445e-003, 1.4081e-005
499.52700,123.91381, 5.8517e-003, 1.4636e-005
500.02700,124.07596, 5.8589e-003, 1.4437e-005
500.52700,124.23852, 5.8661e-003, 1.3903e-005
501.02700,124.40101, 5.8729e-003, 1.3989e-005
501.52700,124.56359, 5.8803e-003, 1.3969e-005
502.02700,124.72646, 5.8873e-003, 1.4302e-005
502.52700,124.88925, 5.8946e-003, 1.4733e-005
503.02700,125.05189, 5.9019e-003, 1.4757e-005
503.52700,125.21457, 5.9095e-003, 1.4970e-005
504.02700,125.37736, 5.9164e-003, 1.4612e-005
504.52700,125.54036, 5.9234e-003, 1.4268e-005
505.02700,125.70337, 5.9308e-003, 1.3908e-005
505.52700,125.86651, 5.9378e-003, 1.4418e-005
506.02700,126.02980, 5.9450e-003, 1.4007e-005
506.52700,126.19319, 5.9518e-003, 1.3632e-005
507.02700,126.35653, 5.9590e-003, 1.4861e-005
507.52700,126.52013, 5.9662e-003, 1.4240e-005
508.02700,126.68405, 5.9733e-003, 1.4671e-005
508.52700,126.84825, 5.9806e-003, 1.4271e-005
509.02700,127.01210, 5.9876e-003, 1.4601e-005
509.52700,127.17598, 5.9949e-003, 1.4008e-005
510.02700,127.33994, 6.0019e-003, 1.4064e-005
510.52700,127.50327, 6.0090e-003, 1.4557e-005
511.02700,127.66719, 6.0160e-003, 1.3985e-005
511.52700,127.83142, 6.0234e-003, 1.4187e-005
512.02700,127.99543, 6.0304e-003, 1.4152e-005
512.52700,128.15959, 6.0377e-003, 1.4143e-005
513.02700,128.32386, 6.0449e-003, 1.3702e-005
513.52700,128.48788, 6.0516e-003, 1.3890e-005
514.02700,128.65267, 6.0589e-003, 1.4029e-005
514.52700,128.81680, 6.0659e-003, 1.5031e-005
515.02700,128.98100, 6.0733e-003, 1.3991e-005
515.52700,129.14549, 6.0805e-003, 1.4737e-005
516.02700,129.30955, 6.0877e-003, 1.4493e-005
516.52700,129.47414, 6.0950e-003, 1.4645e-005
517.02700,129.63894, 6.1024e-003, 1.4388e-005
517.52700,129.80335, 6.1096e-003, 1.4654e-005
518.02700,129.96805, 6.1168e-003, 1.4359e-005
518.52700,130.13265, 6.1244e-003, 1.4905e-005
519.02700,130.29722, 6.1316e-003, 1.4362e-005
519.52700,130.46211, 6.1386e-003, 1.4417e-005
520.02700,130.62717, 6.1458e-003, 1.4392e-005
520.52700,130.79262, 6.1532e-003, 1.4254e-005
521.02700,130.95809, 6.1602e-003, 1.4405e-005
521.52700,131.12356, 6.1675e-003, 1.4598e-005
522.02700,131.28920, 6.1746e-003, 1.4252e-005
522.52700,131.45504, 6.1817e-003, 1.4103e-005
523.02700,131.62114, 6.1890e-003, 1.4606e-005
523.52700,131.78765, 6.1963e-003, 1.4130e-005
524.02700,131.95399, 6.2034e-003, 1.4332e-005
524.52700,132.11957, 6.2104e-003, 1.4673e-005
525.02700,132.28473, 6.2176e-003, 1.4285e-005
525.52700,132.44986, 6.2250e-003, 1.4808e-005
526.02700,132.61485, 6.2319e-003, 1.3426e-005
526.52700,132.78036, 6.2392e-003, 1.3870e-005
527.02700,132.94622, 6.2461e-003, 1.4673e-005
527.52700,133.11258, 6.2535e-003, 1.4073e-005
528.02700,133.27888, 6.2604e-003, 1.5569e-005
528.52700,133.44460, 6.2676e-003, 1.3862e-005
529.02700,133.61067, 6.2748e-003, 1.4481e-005
529.52700,133.77655, 6.2824e-003, 1.4591e-005
530.02700,133.94175, 6.2895e-003, 1.4714e-005
530.52700,134.10796, 6.2972e-003, 1.4222e-005
531.02700,134.27455, 6.3044e-003, 1.4200e-005
531.52700,134.44109, 6.3117e-003, 1.4462e-005
532.02700,134.60812, 6.3187e-003, 1.4369e-005
532.52700,134.77550, 6.3263e-003, 1.4360e-005
533.02700,134.94232, 6.3333e-003, 1.4437e-005
533.52700,135.10915, 6.3402e-003, 1.4397e-005
534.02700,135.27622, 6.3479e-003, 1.5249e-005
534.52700,135.44321, 6.3556e-003, 1.4297e-005
535.02700,135.61028, 6.3628e-003, 1.4703e-005
535.52700,135.77749, 6.3697e-003, 1.4012e-005
536.02700,135.94456, 6.3771e-003, 1.4510e-005
536.52700,136.11136, 6.3844e-003, 1.4777e-005
537.02700,136.27837, 6.3917e-003, 1.4707e-005
537.52700,136.44589, 6.3991e-003, 1.4433e-005
538.02700,136.61343, 6.4063e-003, 1.4775e-005
538.52700,136.78116, 6.4135e-003, 1.4831e-005
539.02700,136.94943, 6.4208e-003, 1.4525e-005
539.52700,137.11729, 6.4280e-003, 1.4484e-005
540.02700,137.28475, 6.4353e-003, 1.4544e-005
540.52700,137.45220, 6.4426e-003, 1.5102e-005
541.02700,137.61988, 6.4499e-003, 1.4724e-005
541.52700,137.78772, 6.4572e-003, 1.4432e-005
542.02700,137.95600, 6.4644e-003, 1.4459e-005
542.52700,138.12478, 6.4716e-003, 1.4645e-005
543.02700,138.29339, 6.4792e-003, 1.4542e-005
543.52700,138.46136, 6.4861e-003, 1.4061e-005
544.02700,138.62945, 6.4938e-003, 1.4777e-005
544.52700,138.79754, 6.5010e-003, 1.4691e-005
545.02700,138.96581, 6.5082e-003, 1.4516e-005
545.52700,139.13410, 6.5154e-003, 1.4928e-005
546.02700,139.30283, 6.5228e-003, 1.4912e-005
546.52700,139.47152, 6.5302e-003, 1.4733e-005
547.02700,139.64042, 6.5379e-003, 1.4925e-005
547.52700,139.80969, 6.5451e-003, 1.4077e-005
548.02700,139.97878, 6.5522e-003, 1.4919e-005
548.52700,140.14833, 6.5596e-003, 1.4351e-005
549.02700,140.31761, 6.5670e-003, 1.4716e-005
549.52700,140.48685, 6.5743e-003, 1.4413e-005
550.02700,140.65634, 6.5816e-003, 1.4115e-005
550.52700,140.82518, 6.5886e-003, 1.4094e-005
551.02700,140.99422, 6.5957e-003, 1.4536e-005
551.52700,141.16339, 6.6030e-003, 1.3731e-005
552.02700,141.33246, 6.6101e-003, 1.4249e-005
552.52700,141.50200, 6.6172e-003, 1.4422e-005
553.02700,141.67114, 6.6248e-003, 1.4719e-005
553.52700,141.83989, 6.6321e-003, 1.4801e-005
554.02700,142.00869, 6.6394e-003, 1.4935e-005
554.52700,142.17753, 6.6465e-003, 1.4494e-005
555.02700,142.34628, 6.6539e-003, 1.4523e-005
555.52700,142.51508, 6.6611e-003, 1.4552e-005
556.02700,142.68407, 6.6684e-003, 1.4977e-005
556.52700,142.85305, 6.6758e-003, 1.4527e-005
557.02700,143.02260, 6.6832e-003, 1.4716e-005
557.52700,143.19256, 6.6909e-003, 1.5402e-005
558.02700,143.36335, 6.6985e-003, 1.5141e-005
558.52700,143.53475, 6.7065e-003, 1.5680e-005
559.02700,143.70597, 6.7138e-003, 1.5117e-005
559.52700,143.87748, 6.7212e-003, 1.5062e-005
560.02700,144.04893, 6.7291e-003, 1.5528e-005
560.52700,144.22045, 6.7368e-003, 1.5931e-005
561.02700,144.39246, 6.7445e-003, 1.5628e-005
561.52700,144.56500, 6.7523e-003, 1.5889e-005
562.02700,144.73765, 6.7603e-003, 1.4746e-005
562.52700,144.91072, 6.7679e-003, 1.5637e-005
563.02700,145.08428, 6.7758e-003, 1.5275e-005
563.52700,145.25826, 6.7833e-003, 1.5472e-005
564.02700,145.43273, 6.7912e-003, 1.4988e-005
564.52700,145.60730, 6.7989e-003, 1.5411e-005
565.02700,145.78198, 6.8062e-003, 1.4956e-005
565.52700,145.95646, 6.8139e-003, 1.5429e-005
566.02700,146.13072, 6.8212e-003, 1.4978e-005
566.52700,146.30490, 6.8287e-003, 1.4291e-005
567.02700,146.47871, 6.8356e-003, 1.4180e-005
567.52700,146.65198, 6.8430e-003, 1.5002e-005
568.02700,146.82450, 6.8500e-003, 1.4030e-005
568.52700,146.99580, 6.8574e-003, 1.4049e-005
569.02700,147.16641, 6.8645e-003, 1.4498e-005
569.52700,147.33582, 6.8717e-003, 1.4622e-005
570.02700,147.50486, 6.8785e-003, 1.4068e-005
570.52700,147.67334, 6.8854e-003, 1.4474e-005
571.02700,147.84079, 6.8924e-003, 1.3719e-005
571.52700,148.00776, 6.8991e-003, 1.3676e-005
572.02700,148.17317, 6.9061e-003, 1.4225e-005
572.52700,148.33809, 6.9131e-003, 1.4772e-005
573.02700,148.50293, 6.9206e-003, 1.4139e-005
573.52700,148.66801, 6.9275e-003, 1.4193e-005
574.02700,148.83322, 6.9345e-003, 1.4238e-005
574.52700,148.99840, 6.9414e-003, 1.4518e-005
575.02700,149.16341, 6.9488e-003, 1.4375e-005
575.52700,149.32799, 6.9558e-003, 1.4345e-005
576.02700,149.49246, 6.9632e-003, 1.4285e-005
576.52700,149.65726, 6.9702e-003, 1.4577e-005
577.02700,149.82258, 6.9773e-003, 1.4215e-005
577.52700,149.98828, 6.9844e-003, 1.5031e-005
578.02700,150.15414, 6.9919e-003, 1.4181e-005
578.52700,150.32012, 6.9993e-003, 1.4588e-005
579.02700,150.48652, 7.0065e-003, 1.4287e-005
579.52700,150.65299, 7.0139e-003, 1.5220e-005
580.02700,150.81992, 7.0209e-003, 1.4652e-005
580.52700,150.98736, 7.0284e-003, 1.4448e-005
581.02700,151.15543, 7.0357e-003, 1.4474e-005
581.52700,151.32370, 7.0429e-003, 1.4591e-005
582.02700,151.49181, 7.0503e-003, 1.4965e-005
582.52700,151.66047, 7.0578e-003, 1.4808e-005
583.02700,151.82914, 7.0652e-003, 1.5026e-005
583.52700,151.99797, 7.0725e-003, 1.4206e-005
584.02700,152.16714, 7.0797e-003, 1.4542e-005
584.52700,152.33648, 7.0872e-003, 1.4908e-005
585.02700,152.50609, 7.0947e-003, 1.4695e-005
585.52700,152.67566, 7.1020e-003, 1.4499e-005
586.02700,152.84561, 7.1096e-003, 1.4898e-005
586.52700,153.01582, 7.1170e-003, 1.5080e-005
587.02700,153.18629, 7.1243e-003, 1.4560e-005
587.52700,153.35732, 7.1314e-003, 1.4676e-005
588.02700,153.52924, 7.1389e-003, 1.4698e-005
588.52700,153.70359, 7.1464e-003, 1.5643e-005
589.02700,153.88113, 7.1544e-003, 1.4909e-005
589.52700,154.05879, 7.1611e-003, 1.5371e-005
590.02700,154.23635, 7.1688e-003, 1.4453e-005
590.52700,154.41214, 7.1761e-003, 1.5058e-005
591.02700,154.58493, 7.1837e-003, 1.4848e-005
591.52700,154.75764, 7.1912e-003, 1.5094e-005
592.02700,154.92987, 7.1987e-003, 1.5092e-005
592.52700,155.10272, 7.2066e-003, 1.5361e-005
593.02700,155.27613, 7.2140e-003, 1.5361e-005
593.52700,155.45008, 7.2217e-003, 1.5206e-005
594.02700,155.62507, 7.2296e-003, 1.5538e-005
594.52700,155.80116, 7.2375e-003, 1.5376e-005
595.02700,155.97757, 7.2451e-003, 1.5855e-005
595.52700,156.15456, 7.2528e-003, 1.5380e-005
596.02700,156.33205, 7.2606e-003, 1.5725e-005
596.52700,156.50937, 7.2688e-003, 1.5486e-005
597.02700,156.68715, 7.2766e-003, 1.5978e-005
597.52700,156.86552, 7.2845e-003, 1.5995e-005
598.02700,157.04435, 7.2926e-003, 1.5737e-005
598.52700,157.22342, 7.3003e-003, 1.5233e-005
599.02700,157.40234, 7.3081e-003, 1.5461e-005
599.52700,157.58135, 7.3161e-003, 1.5179e-005
600.02700,157.76011, 7.3239e-003, 1.5507e-005
600.52700,157.93861, 7.3315e-003, 1.5669e-005
601.02700,158.11762, 7.3392e-003, 1.4820e-005
601.52700,158.29621, 7.3465e-003, 1.4562e-005
602.02700,158.47416, 7.3540e-003, 1.4142e-005
602.52700,158.65145, 7.3612e-003, 1.4933e-005
603.02700,158.82654, 7.3686e-003, 1.4962e-005
603.52700,159.00031, 7.3760e-003, 1.4459e-005
604.02700,159.17300, 7.3831e-003, 1.4694e-005
604.52700,159.34488, 7.3902e-003, 1.3659e-005
605.02700,159.51625, 7.3974e-003, 1.4717e-005
605.52700,159.68700, 7.4045e-003, 1.4569e-005
606.02700,159.85742, 7.4116e-003, 1.4204e-005
606.52700,160.02665, 7.4186e-003, 1.4523e-005
607.02700,160.19547, 7.4257e-003, 1.4275e-005
607.52700,160.36358, 7.4332e-003, 1.4576e-005
608.02700,160.53104, 7.4405e-003, 1.4700e-005
608.52700,160.69813, 7.4477e-003, 1.4845e-005
609.02700,160.86524, 7.4553e-003, 1.4665e-005
609.52700,161.03248, 7.4620e-003, 1.3784e-005
610.02700,161.20004, 7.4693e-003, 1.5265e-005
610.52700,161.36814, 7.4768e-003, 1.4972e-005
611.02700,161.53686, 7.4842e-003, 1.5037e-005
611.52700,161.70622, 7.4923e-003, 1.5764e-005
612.02700,161.87623, 7.4999e-003, 1.5287e-005
612.52700,162.04694, 7.5071e-003, 1.4950e-005
613.02700,162.21832, 7.5147e-003, 1.5184e-005
613.52700,162.38986, 7.5227e-003, 1.5003e-005
614.02700,162.56179, 7.5301e-003, 1.5149e-005
614.52700,162.73425, 7.5375e-003, 1.5255e-005
615.02700,162.90679, 7.5451e-003, 1.5557e-005
615.52700,163.07972, 7.5529e-003, 1.4829e-005
616.02700,163.25279, 7.5608e-003, 1.5394e-005
616.52700,163.42572, 7.5681e-003, 1.5430e-005
617.02700,163.59884, 7.5758e-003, 1.5252e-005
617.52700,163.77203, 7.5834e-003, 1.5061e-005
618.02700,163.94584, 7.5912e-003, 1.4987e-005
618.52700,164.11952, 7.5985e-003, 1.6279e-005
619.02700,164.29368, 7.6065e-003, 1.5051e-005
619.52700,164.46835, 7.6141e-003, 1.4884e-005
620.02700,164.64277, 7.6217e-003, 1.5514e-005
620.52700,164.81760, 7.6293e-003, 1.4811e-005
621.02700,164.99293, 7.6371e-003, 1.5570e-005
621.52700,165.16864, 7.6450e-003, 1.5534e-005
622.02700,165.34429, 7.6526e-003, 1.5013e-005
622.52700,165.51989, 7.6603e-003, 1.5791e-005
623.02700,165.69552, 7.6680e-003, 1.5408e-005
623.52700,165.87079, 7.6756e-003, 1.5042e-005
624.02700,166.04655, 7.6835e-003, 1.5699e-005
624.52700,166.22281, 7.6912e-003, 1.5711e-005
625.02700,166.39917, 7.6987e-003, 1.5391e-005
625.52700,166.57629, 7.7066e-003, 1.5406e-005
626.02700,166.75372, 7.7141e-003, 1.5748e-005
626.52700,166.93170, 7.7217e-003, 1.5212e-005
627.02700,167.10966, 7.7298e-003, 1.6043e-005
627.52700,167.28676, 7.7375e-003, 1.5389e-005
628.02700,167.46373, 7.7456e-003, 1.5874e-005
628.52700,167.64096, 7.7534e-003, 1.5890e-005
629.02700,167.81832, 7.7611e-003, 1.5483e-005
629.52700,167.99630, 7.7688e-003, 1.5625e-005
630.02700,168.17457, 7.7771e-003, 1.5685e-005
630.52700,168.35246, 7.7848e-003, 1.5170e-005
631.02700,168.53065, 7.7926e-003, 1.5821e-005
631.52700,168.70906, 7.8005e-003, 1.5383e-005
632.02700,168.88742, 7.8083e-003, 1.5492e-005
632.52700,169.06596, 7.8161e-003, 1.5840e-005
633.02700,169.24411, 7.8242e-003, 1.5961e-005
633.52700,169.42240, 7.8319e-003, 1.5847e-005
634.02700,169.60072, 7.8397e-003, 1.5509e-005
634.52700,169.77917, 7.8475e-003, 1.5803e-005
635.02700,169.95819, 7.8555e-003, 1.5435e-005
635.52700,170.13737, 7.8631e-003, 1.5494e-005
636.02700,170.31637, 7.8708e-003, 1.5629e-005
636.52700,170.49530, 7.8786e-003, 1.5832e-005
637.02700,170.67442, 7.8867e-003, 1.5631e-005
637.52700,170.85404, 7.8946e-003, 1.6091e-005
638.02700,171.03386, 7.9023e-003, 1.5174e-005
638.52700,171.21386, 7.9101e-003, 1.5657e-005
639.02700,171.39398, 7.9180e-003, 1.5226e-005
639.52700,171.57401, 7.9260e-003, 1.5988e-005
640.02700,171.75437, 7.9337e-003, 1.5605e-005
640.52700,171.93488, 7.9416e-003, 1.5897e-005
641.02700,172.11534, 7.9494e-003, 1.6166e-005
641.52700,172.29581, 7.9575e-003, 1.5785e-005
642.02700,172.47646, 7.9655e-003, 1.6392e-005
642.52700,172.65698, 7.9734e-003, 1.6700e-005
643.02700,172.83706, 7.9817e-003, 1.5792e-005
643.52700,173.01714, 7.9899e-003, 1.6081e-005
644.02700,173.19716, 7.9979e-003, 1.5456e-005
644.52700,173.37709, 8.0055e-003, 1.5779e-005
645.02700,173.55736, 8.0138e-003, 1.5859e-005
645.52700,173.73759, 8.0214e-003, 1.5886e-005
646.02700,173.91787, 8.0288e-003, 1.5391e-005
646.52700,174.09856, 8.0370e-003, 1.5951e-005
647.02700,174.27931, 8.0453e-003, 1.6352e-005
647.52700,174.46001, 8.0530e-003, 1.5749e-005
648.02700,174.64100, 8.0612e-003, 1.5756e-005
648.52700,174.82197, 8.0693e-003, 1.6219e-005
649.02700,175.00313, 8.0768e-003, 1.5772e-005
649.52700,175.18467, 8.0849e-003, 1.5941e-005
650.02700,175.36605, 8.0925e-003, 1.6578e-005
650.52700,175.54768, 8.1009e-003, 1.6539e-005
651.02700,175.72899, 8.1086e-003, 1.5856e-005
651.52700,175.91029, 8.1167e-003, 1.5844e-005
652.02700,176.09244, 8.1248e-003, 1.5695e-005
652.52700,176.27453, 8.1327e-003, 1.6135e-005
653.02700,176.45731, 8.1405e-003, 1.5917e-005
653.52700,176.63989, 8.1484e-003, 1.6062e-005
654.02700,176.82159, 8.1566e-003, 1.6157e-005
654.52700,177.00365, 8.1646e-003, 1.6116e-005
655.02700,177.18565, 8.1726e-003, 1.6109e-005
655.52700,177.36877, 8.1805e-003, 1.5270e-005
656.02700,177.55269, 8.1884e-003, 1.5760e-005
656.52700,177.73628, 8.1962e-003, 1.5857e-005
657.02700,177.91924, 8.2040e-003, 1.6074e-005
657.52700,178.10141, 8.2123e-003, 1.6374e-005
658.02700,178.28307, 8.2202e-003, 1.5749e-005
658.52700,178.46543, 8.2280e-003, 1.5790e-005
659.02700,178.64769, 8.2356e-003, 1.5723e-005
659.52700,178.82983, 8.2440e-003, 1.4974e-005
660.02700,179.01204, 8.2517e-003, 1.5803e-005
660.52700,179.19367, 8.2594e-003, 1.5971e-005
661.02700,179.37547, 8.2679e-003, 1.6264e-005
661.52700,179.55706, 8.2759e-003, 1.6393e-005
662.02700,179.73877, 8.2841e-003, 1.5843e-005
662.52700,179.92061, 8.2918e-003, 1.5850e-005
663.02700,180.10279, 8.2996e-003, 1.5786e-005
663.52700,180.28532, 8.3076e-003, 1.6050e-005
664.02700,180.46848, 8.3157e-003, 1.5411e-005
664.52700,180.65183, 8.3235e-003, 1.5714e-005
665.02700,180.83521, 8.3314e-003, 1.5949e-005
665.52700,181.01835, 8.3393e-003, 1.6362e-005
666.02700,181.20137, 8.3476e-003, 1.6081e-005
666.52700,181.38446, 8.3554e-003, 1.5891e-005
667.02700,181.56780, 8.3636e-003, 1.5754e-005
667.52700,181.75149, 8.3713e-003, 1.6496e-005
668.02700,181.93526, 8.3792e-003, 1.5312e-005
668.52700,182.11915, 8.3873e-003, 1.5649e-005
669.02700,182.30335, 8.3956e-003, 1.6281e-005
669.52700,182.48778, 8.4039e-003, 1.6746e-005
670.02700,182.67291, 8.4116e-003, 1.6600e-005
670.52700,182.85858, 8.4198e-003, 1.5924e-005
671.02700,183.04453, 8.4279e-003, 1.6314e-005
671.52700,183.23083, 8.4363e-003, 1.6483e-005
672.02700,183.41731, 8.4446e-003, 1.7092e-005
672.52700,183.60382, 8.4528e-003, 1.6519e-005
673.02700,183.79072, 8.4612e-003, 1.6687e-005
673.52700,183.97795, 8.4695e-003, 1.7066e-005
674.02700,184.16565, 8.4779e-003, 1.6790e-005
674.52700,184.35384, 8.4861e-003, 1.6404e-005
675.02700,184.54258, 8.4946e-003, 1.6265e-005
675.52700,184.73094, 8.5024e-003, 1.6649e-005
676.02700,184.91952, 8.5109e-003, 1.6718e-005
676.52700,185.10766, 8.5190e-003, 1.5932e-005
677.02700,185.29551, 8.5267e-003, 1.5323e-005
677.52700,185.48313, 8.5348e-003, 1.5638e-005
678.02700,185.66959, 8.5427e-003, 1.5495e-005
678.52700,185.85505, 8.5507e-003, 1.6118e-005
679.02700,186.03902, 8.5585e-003, 1.4809e-005
679.52700,186.22218, 8.5659e-003, 1.5745e-005
680.02700,186.40476, 8.5740e-003, 1.5327e-005
680.52700,186.58718, 8.5814e-003, 1.5132e-005
681.02700,186.76939, 8.5891e-003, 1.5921e-005
681.52700,186.95112, 8.5967e-003, 1.5341e-005
682.02700,187.13239, 8.6045e-003, 1.5814e-005
682.52700,187.31247, 8.6124e-003, 1.5759e-005
683.02700,187.49209, 8.6197e-003, 1.5356e-005
683.52700,187.67134, 8.6275e-003, 1.4979e-005
684.02700,187.85010, 8.6352e-003, 1.5286e-005
684.52700,188.02895, 8.6431e-003, 1.5627e-005
685.02700,188.20793, 8.6507e-003, 1.5909e-005
685.52700,188.38696, 8.6587e-003, 1.5887e-005
686.02700,188.56646, 8.6663e-003, 1.5354e-005
686.52700,188.74610, 8.6742e-003, 1.5906e-005
687.02700,188.92614, 8.6823e-003, 1.5342e-005
687.52700,189.10587, 8.6898e-003, 1.5707e-005
688.02700,189.28638, 8.6978e-003, 1.5543e-005
688.52700,189.46764, 8.7058e-003, 1.6048e-005
689.02700,189.64927, 8.7138e-003, 1.5762e-005
689.52700,189.83182, 8.7216e-003, 1.5172e-005
690.02700,190.01417, 8.7293e-003, 1.5425e-005
690.52700,190.19692, 8.7371e-003, 1.6048e-005
691.02700,190.37936, 8.7450e-003, 1.5450e-005
691.52700,190.56170, 8.7528e-003, 1.5317e-005
692.02700,190.74428, 8.7607e-003, 1.5840e-005
692.52700,190.92672, 8.7683e-003, 1.5241e-005
693.02700,191.10973, 8.7762e-003, 1.5721e-005
693.52700,191.29307, 8.7840e-003, 1.4997e-005
694.02700,191.47687, 8.7917e-003, 1.5069e-005
694.52700,191.66110, 8.7995e-003, 1.5745e-005
695.02700,191.84589, 8.8074e-003, 1.5438e-005
695.52700,192.03080, 8.8151e-003, 1.5419e-005
696.02700,192.21547, 8.8229e-003, 1.6105e-005
696.52700,192.40024, 8.8306e-003, 1.5581e-005
697.02700,192.58453, 8.8386e-003, 1.5982e-005
697.52700,192.76881, 8.8466e-003, 1.5387e-005
698.02700,192.95370, 8.8543e-003, 1.5504e-005
698.52700,193.13934, 8.8622e-003, 1.5432e-005
699.02700,193.32611, 8.8699e-003, 1.5231e-005
699.52700,193.51338, 8.8774e-003, 1.5048e-005
700.02700,193.70062, 8.8851e-003, 1.6391e-005
700.52700,193.88762, 8.8929e-003, 1.5836e-005
701.02700,194.07444, 8.9008e-003, 1.5328e-005
701.52700,194.26165, 8.9086e-003, 1.6424e-005
702.02700,194.44939, 8.9166e-003, 1.4673e-005
702.52700,194.63771, 8.9243e-003, 1.5871e-005
703.02700,194.82656, 8.9321e-003, 1.5774e-005
703.52700,195.01528, 8.9401e-003, 1.5884e-005
704.02700,195.20401, 8.9480e-003, 1.5462e-005
704.52700,195.39259, 8.9561e-003, 1.6164e-005
705.02700,195.58081, 8.9636e-003, 1.5050e-005
705.52700,195.76953, 8.9715e-003, 1.5348e-005
706.02700,195.95872, 8.9792e-003, 1.5616e-005
706.52700,196.14828, 8.9870e-003, 1.5460e-005
707.02700,196.33820, 8.9948e-003, 1.5355e-005
707.52700,196.52851, 9.0027e-003, 1.5274e-005
708.02700,196.71890, 9.0105e-003, 1.5908e-005
708.52700,196.90955, 9.0183e-003, 1.5707e-005
709.02700,197.10087, 9.0263e-003, 1.5332e-005
709.52700,197.29221, 9.0339e-003, 1.5236e-005
710.02700,197.48338, 9.0416e-003, 1.5415e-005
710.52700,197.67448, 9.0492e-003, 1.5443e-005
711.02700,197.86536, 9.0572e-003, 1.5612e-005
711.52700,198.05639, 9.0649e-003, 1.5743e-005
712.02700,198.24827, 9.0724e-003, 1.4742e-005
712.52700,198.43981, 9.0802e-003, 1.5711e-005
713.02700,198.63068, 9.0881e-003, 1.5398e-005
713.52700,198.82132, 9.0959e-003, 1.5326e-005
714.02700,199.01124, 9.1040e-003, 1.5762e-005
714.52700,199.20154, 9.1117e-003, 1.5363e-005
715.02700,199.39189, 9.1193e-003, 1.5097e-005
715.52700,199.58237, 9.1269e-003, 1.5507e-005
716.02700,199.77312, 9.1349e-003, 1.5884e-005
716.52700,199.96429, 9.1425e-003, 1.5294e-005
717.02700,200.15580, 9.1505e-003, 1.5633e-005
717.52700,200.34697, 9.1583e-003, 1.5516e-005
718.02700,200.53850, 9.1658e-003, 1.5262e-005
718.52700,200.72998, 9.1738e-003, 1.5743e-005
719.02700,200.92131, 9.1816e-003, 1.5463e-005
719.52700,201.11267, 9.1896e-003, 1.5408e-005
720.02700,201.30368, 9.1971e-003, 1.5113e-005
720.52700,201.49477, 9.2049e-003, 1.5600e-005
721.02700,201.68599, 9.2126e-003, 1.5404e-005
721.52700,201.87725, 9.2203e-003, 1.5047e-005
722.02700,202.06847, 9.2281e-003, 1.5929e-005
722.52700,202.25969, 9.2355e-003, 1.5564e-005
723.02700,202.45129, 9.2435e-003, 1.4791e-005
723.52700,202.64327, 9.2511e-003, 1.5163e-005
724.02700,202.83612, 9.2587e-003, 1.5397e-005
724.52700,203.02888, 9.2666e-003, 1.6084e-005
725.02700,203.22098, 9.2746e-003, 1.5538e-005
725.52700,203.41243, 9.2824e-003, 1.5927e-005
726.02700,203.60320, 9.2904e-003, 1.5039e-005
726.52700,203.79321, 9.2977e-003, 1.4878e-005
727.02700,203.98315, 9.3054e-003, 1.5278e-005
727.52700,204.17289, 9.3134e-003, 1.6170e-005
728.02700,204.36406, 9.3210e-003, 1.5567e-005
728.52700,204.55541, 9.3287e-003, 1.5456e-005
729.02700,204.74709, 9.3362e-003, 1.5459e-005
729.52700,204.93881, 9.3440e-003, 1.4574e-005
730.02700,205.12964, 9.3518e-003, 1.5777e-005
730.52700,205.32033, 9.3594e-003, 1.5546e-005
731.02700,205.51203, 9.3675e-003, 1.6167e-005
731.52700,205.70433, 9.3751e-003, 1.5231e-005
732.02700,205.89687, 9.3829e-003, 1.5733e-005
732.52700,206.08961, 9.3907e-003, 1.5276e-005
733.02700,206.28149, 9.3985e-003, 1.4970e-005
733.52700,206.47272, 9.4062e-003, 1.5679e-005
734.02700,206.66441, 9.4142e-003, 1.6008e-005
734.52700,206.85615, 9.4215e-003, 1.5579e-005
735.02700,207.04772, 9.4294e-003, 1.5930e-005
735.52700,207.23916, 9.4369e-003, 1.6006e-005
736.02700,207.43054, 9.4448e-003, 1.5392e-005
736.52700,207.62165, 9.4525e-003, 1.5486e-005
737.02700,207.81272, 9.4602e-003, 1.5694e-005
737.52700,208.00301, 9.4681e-003, 1.5931e-005
738.02700,208.19282, 9.4756e-003, 1.5216e-005
738.52700,208.38311, 9.4834e-003, 1.5467e-005
739.02700,208.57351, 9.4913e-003, 1.5993e-005
739.52700,208.76500, 9.4991e-003, 1.5749e-005
740.02700,208.95642, 9.5070e-003, 1.5722e-005
740.52700,209.14840, 9.5148e-003, 1.5930e-005
741.02700,209.34125, 9.5227e-003, 1.5714e-005
741.52700,209.53540, 9.5308e-003, 1.6069e-005
742.02700,209.73016, 9.5389e-003, 1.6228e-005
742.52700,209.92601, 9.5472e-003, 1.6226e-005
743.02700,210.12282, 9.5550e-003, 1.6306e-005
743.52700,210.32052, 9.5634e-003, 1.6266e-005
744.02700,210.51798, 9.5712e-003, 1.6737e-005
744.52700,210.71628, 9.5795e-003, 1.6518e-005
745.02700,210.91432, 9.5874e-003, 1.6329e-005
745.52700,211.11299, 9.5956e-003, 1.5727e-005
746.02700,211.31141, 9.6035e-003, 1.6287e-005
746.52700,211.50950, 9.6113e-003, 1.5918e-005
747.02700,211.70623, 9.6192e-003, 1.6324e-005
747.52700,211.90183, 9.6273e-003, 1.6171e-005
748.02700,212.09672, 9.6350e-003, 1.5742e-005
748.52700,212.29013, 9.6429e-003, 1.5945e-005
749.02700,212.48275, 9.6507e-003, 1.5269e-005
749.52700,212.67440, 9.6587e-003, 1.5526e-005
750.02700,212.86461, 9.6663e-003, 1.5542e-005
750.52700,213.05430, 9.6740e-003, 1.5015e-005
751.02700,213.24281, 9.6814e-003, 1.5034e-005
751.52700,213.43010, 9.6890e-003, 1.5039e-005
752.02700,213.61804, 9.6965e-003, 1.5257e-005
752.52700,213.80522, 9.7042e-003, 1.5430e-005
753.02700,213.99233, 9.7118e-003, 1.5266e-005
753.52700,214.17865, 9.7195e-003, 1.5151e-005
754.02700,214.36429, 9.7271e-003, 1.5213e-005
754.52700,214.54988, 9.7349e-003, 1.5707e-005
755.02700,214.73623, 9.7425e-003, 1.5717e-005
755.52700,214.92352, 9.7503e-003, 1.5052e-005
756.02700,215.11058, 9.7576e-003, 1.5491e-005
756.52700,215.29778, 9.7656e-003, 1.5605e-005
757.02700,215.48428, 9.7735e-003, 1.5794e-005
757.52700,215.67098, 9.7813e-003, 1.5953e-005
758.02700,215.85816, 9.7890e-003, 1.5215e-005
758.52700,216.04575, 9.7965e-003, 1.5427e-005
759.02700,216.23339, 9.8045e-003, 1.5042e-005
759.52700,216.42111, 9.8123e-003, 1.5734e-005
760.02700,216.60845, 9.8200e-003, 1.5464e-005
760.52700,216.79579, 9.8279e-003, 1.5445e-005
761.02700,216.98270, 9.8357e-003, 1.5883e-005
761.52700,217.16963, 9.8437e-003, 1.4970e-005
762.02700,217.35684, 9.8511e-003, 1.5470e-005
762.52700,217.54421, 9.8589e-003, 1.5087e-005
763.02700,217.73223, 9.8668e-003, 1.6025e-005
763.52700,217.92076, 9.8750e-003, 1.5709e-005
764.02700,218.10924, 9.8823e-003, 1.5456e-005
764.52700,218.29797, 9.8902e-003, 1.6182e-005
765.02700,218.48649, 9.8981e-003, 1.5991e-005
765.52700,218.67537, 9.9061e-003, 1.6174e-005
766.02700,218.86579, 9.9142e-003, 1.6028e-005
766.52700,219.05641, 9.9219e-003, 1.5986e-005
767.02700,219.24825, 9.9300e-003, 1.5887e-005
767.52700,219.43979, 9.9382e-003, 1.6374e-005
768.02700,219.63082, 9.9458e-003, 1.5895e-005
768.52700,219.82224, 9.9540e-003, 1.5805e-005
769.02700,220.01287, 9.9617e-003, 1.5469e-005
769.52700,220.20329, 9.9695e-003, 1.5951e-005
770.02700,220.39374, 9.9775e-003, 1.5915e-005
770.52700,220.58452, 9.9858e-003, 1.6212e-005
771.02700,220.77604, 9.9935e-003, 1.5836e-005
771.52700,220.96767, 1.0001e-002, 1.5740e-005
772.02700,221.15909, 1.0009e-002, 1.5588e-005
772.52700,221.35067, 1.0017e-002, 1.6211e-005
773.02700,221.54171, 1.0025e-002, 1.6617e-005
773.52700,221.73335, 1.0033e-002, 1.5783e-005
774.02700,221.92427, 1.0041e-002, 1.5348e-005
774.52700,222.11492, 1.0049e-002, 1.5326e-005
775.02700,222.30607, 1.0057e-002, 1.5607e-005
775.52700,222.49708, 1.0065e-002, 1.6357e-005
776.02700,222.68828, 1.0073e-002, 1.5398e-005
776.52700,222.87977, 1.0081e-002, 1.5942e-005
777.02700,223.07183, 1.0089e-002, 1.5039e-005
777.52700,223.26436, 1.0097e-002, 1.7272e-005
778.02700,223.45745, 1.0105e-002, 1.5515e-005
778.52700,223.65056, 1.0113e-002, 1.6097e-005
779.02700,223.84371, 1.0121e-002, 1.6289e-005
779.52700,224.03648, 1.0129e-002, 1.6033e-005
780.02700,224.22983, 1.0137e-002, 1.5990e-005
780.52700,224.42385, 1.0145e-002, 1.6539e-005
781.02700,224.61828, 1.0153e-002, 1.6214e-005
781.52700,224.81326, 1.0161e-002, 1.5935e-005
782.02700,225.00777, 1.0169e-002, 1.6198e-005
782.52700,225.20122, 1.0176e-002, 1.5203e-005
783.02700,225.39435, 1.0184e-002, 1.5726e-005
783.52700,225.58758, 1.0193e-002, 1.5952e-005
784.02700,225.78059, 1.0200e-002, 1.5443e-005
784.52700,225.97469, 1.0208e-002, 1.6193e-005
785.02700,226.16933, 1.0216e-002, 1.5554e-005
785.52700,226.36387, 1.0224e-002, 1.6130e-005
786.02700,226.55813, 1.0232e-002, 1.6081e-005
786.52700,226.75127, 1.0241e-002, 1.6420e-005
787.02700,226.94371, 1.0249e-002, 1.6448e-005
787.52700,227.13620, 1.0257e-002, 1.6368e-005
788.02700,227.32941, 1.0265e-002, 1.6778e-005
788.52700,227.52355, 1.0273e-002, 1.6555e-005
789.02700,227.71837, 1.0281e-002, 1.6034e-005
789.52700,227.91325, 1.0289e-002, 1.6543e-005
790.02700,228.10795, 1.0297e-002, 1.6025e-005
790.52700,228.30290, 1.0305e-002, 1.5920e-005
791.02700,228.49773, 1.0313e-002, 1.5765e-005
791.52700,228.69325, 1.0321e-002, 1.6746e-005
792.02700,228.88928, 1.0329e-002, 1.5596e-005
792.52700,229.08626, 1.0338e-002, 1.6420e-005
793.02700,229.28405, 1.0346e-002, 1.5680e-005
793.52700,229.48266, 1.0354e-002, 1.6803e-005
794.02700,229.68128, 1.0362e-002, 1.6052e-005
794.52700,229.88005, 1.0370e-002, 1.5853e-005
795.02700,230.07857, 1.0378e-002, 1.5902e-005
795.52700,230.27766, 1.0386e-002, 1.6566e-005
796.02700,230.47667, 1.0394e-002, 1.5915e-005
796.52700,230.67568, 1.0402e-002, 1.6161e-005
797.02700,230.87374, 1.0411e-002, 1.6282e-005
797.52700,231.07124, 1.0419e-002, 1.5808e-005
798.02700,231.26896, 1.0427e-002, 1.6495e-005
798.52700,231.46695, 1.0435e-002, 1.6949e-005
799.02700,231.66569, 1.0443e-002, 1.6565e-005
799.52700,231.86547, 1.0452e-002, 1.7115e-005
800.02700,232.06603, 1.0460e-002, 1.6522e-005
800.52700,232.26809, 1.0468e-002, 1.6040e-005
801.02700,232.47129, 1.0476e-002, 1.6424e-005
801.52700,232.67652, 1.0484e-002, 1.7134e-005
802.02700,232.88542, 1.0493e-002, 1.7297e-005
802.52700,233.09665, 1.0502e-002, 1.7230e-005
803.02700,233.30853, 1.0510e-002, 1.7111e-005
803.52700,233.52050, 1.0519e-002, 1.6924e-005
804.02700,233.73090, 1.0527e-002, 1.6340e-005
804.52700,233.94049, 1.0535e-002, 1.6476e-005
805.02700,234.15023, 1.0544e-002, 1.6349e-005
805.52700,234.35854, 1.0552e-002, 1.6516e-005
806.02700,234.56627, 1.0560e-002, 1.6050e-005
806.52700,234.77142, 1.0568e-002, 1.7163e-005
807.02700,234.97611, 1.0577e-002, 1.5921e-005
807.52700,235.18003, 1.0585e-002, 1.6574e-005
808.02700,235.38325, 1.0593e-002, 1.6145e-005
808.52700,235.58705, 1.0602e-002, 1.7479e-005
809.02700,235.79002, 1.0610e-002, 1.7232e-005
809.52700,235.99365, 1.0619e-002, 1.7085e-005
810.02700,236.19728, 1.0627e-002, 1.6278e-005
810.52700,236.40090, 1.0635e-002, 1.6761e-005
811.02700,236.60533, 1.0644e-002, 1.6696e-005
811.52700,236.80935, 1.0652e-002, 1.7024e-005
812.02700,237.01337, 1.0660e-002, 1.7372e-005
812.52700,237.21715, 1.0668e-002, 1.6044e-005
813.02700,237.42098, 1.0676e-002, 1.7051e-005
813.52700,237.62262, 1.0685e-002, 1.6799e-005
814.02700,237.82450, 1.0693e-002, 1.5969e-005
814.52700,238.02513, 1.0701e-002, 1.6783e-005
815.02700,238.22421, 1.0709e-002, 1.6317e-005
815.52700,238.42207, 1.0717e-002, 1.6453e-005
816.02700,238.61957, 1.0725e-002, 1.6158e-005
816.52700,238.81697, 1.0733e-002, 1.6402e-005
817.02700,239.01282, 1.0741e-002, 1.6512e-005
817.52700,239.20893, 1.0750e-002, 1.5590e-005
818.02700,239.40255, 1.0758e-002, 1.6141e-005
818.52700,239.59662, 1.0766e-002, 1.6048e-005
819.02700,239.79064, 1.0774e-002, 1.6115e-005
819.52700,239.98554, 1.0782e-002, 1.6750e-005
820.02700,240.18094, 1.0790e-002, 1.6956e-005
820.52700,240.37505, 1.0798e-002, 1.7101e-005
821.02700,240.56929, 1.0807e-002, 1.6398e-005
821.52700,240.76318, 1.0815e-002, 1.6457e-005
822.02700,240.95851, 1.0823e-002, 1.6482e-005
822.52700,241.15440, 1.0831e-002, 1.6683e-005
823.02700,241.35084, 1.0840e-002, 1.6595e-005
823.52700,241.54726, 1.0848e-002, 1.6399e-005
824.02700,241.74335, 1.0857e-002, 1.6399e-005
824.52700,241.93952, 1.0865e-002, 1.6569e-005
825.02700,242.13589, 1.0874e-002, 1.6619e-005
825.52700,242.33230, 1.0882e-002, 1.6819e-005
826.02700,242.52846, 1.0890e-002, 1.6863e-005
826.52700,242.72431, 1.0898e-002, 1.5894e-005
827.02700,242.92027, 1.0906e-002, 1.6507e-005
827.52700,243.11628, 1.0915e-002, 1.7166e-005
828.02700,243.31264, 1.0923e-002, 1.6294e-005
828.52700,243.50891, 1.0932e-002, 1.6515e-005
829.02700,243.70462, 1.0940e-002, 1.6639e-005
829.52700,243.90048, 1.0948e-002, 1.6851e-005
830.02700,244.09669, 1.0957e-002, 1.6360e-005
830.52700,244.29271, 1.0965e-002, 1.7033e-005
831.02700,244.48807, 1.0973e-002, 1.7538e-005
831.52700,244.68274, 1.0982e-002, 1.6804e-005
832.02700,244.87736, 1.0991e-002, 1.7007e-005
832.52700,245.07241, 1.0999e-002, 1.6210e-005
833.02700,245.26816, 1.1007e-002, 1.6771e-005
833.52700,245.46358, 1.1015e-002, 1.6674e-005
834.02700,245.65882, 1.1024e-002, 1.7146e-005
834.52700,245.85418, 1.1033e-002, 1.7733e-005
835.02700,246.05017, 1.1041e-002, 1.7359e-005
835.52700,246.24694, 1.1050e-002, 1.7569e-005
836.02700,246.44358, 1.1058e-002, 1.7404e-005
836.52700,246.64122, 1.1067e-002, 1.7055e-005
837.02700,246.83875, 1.1076e-002, 1.7590e-005
837.52700,247.03646, 1.1084e-002, 1.6696e-005
838.02700,247.23459, 1.1093e-002, 1.7759e-005
838.52700,247.43260, 1.1101e-002, 1.7432e-005
839.02700,247.63112, 1.1110e-002, 1.7161e-005
839.52700,247.82944, 1.1119e-002, 1.7684e-005
840.02700,248.02795, 1.1127e-002, 1.6830e-005
840.52700,248.22606, 1.1136e-002, 1.7179e-005
841.02700,248.42404, 1.1145e-002, 1.7702e-005
841.52700,248.62198, 1.1153e-002, 1.7530e-005
842.02700,248.81973, 1.1162e-002, 1.7177e-005
842.52700,249.01743, 1.1171e-002, 1.7792e-005
843.02700,249.21555, 1.1179e-002, 1.7998e-005
843.52700,249.41336, 1.1188e-002, 1.7308e-005
844.02700,249.61160, 1.1198e-002, 1.7638e-005
844.52700,249.80960, 1.1207e-002, 1.8052e-005
845.02700,250.00691, 1.1215e-002, 1.7939e-005
845.52700,250.20397, 1.1225e-002, 1.8275e-005
846.02700,250.40017, 1.1233e-002, 1.8093e-005
846.52700,250.59599, 1.1242e-002, 1.8100e-005
847.02700,250.79164, 1.1251e-002, 1.8483e-005
847.52700,250.98666, 1.1260e-002, 1.9137e-005
848.02700,251.18103, 1.1270e-002, 1.8240e-005
848.52700,251.37505, 1.1279e-002, 1.8312e-005
849.02700,251.56872, 1.1288e-002, 1.9403e-005
849.52700,251.76266, 1.1298e-002, 1.8855e-005
850.02700,251.95675, 1.1307e-002, 1.8714e-005
850.52700,252.15137, 1.1317e-002, 1.9200e-005
851.02700,252.34593, 1.1327e-002, 1.9051e-005
851.52700,252.54044, 1.1336e-002, 1.8820e-005
852.02700,252.73475, 1.1346e-002, 1.9583e-005
852.52700,252.92873, 1.1356e-002, 1.8867e-005
853.02700,253.12323, 1.1366e-002, 1.9952e-005
853.52700,253.31764, 1.1376e-002, 1.9328e-005
854.02700,253.51231, 1.1385e-002, 1.9935e-005
854.52700,253.70626, 1.1395e-002, 1.9343e-005
855.02700,253.89904, 1.1405e-002, 1.9154e-005
855.52700,254.09176, 1.1415e-002, 2.0024e-005
856.02700,254.28446, 1.1425e-002, 2.0571e-005
856.52700,254.47820, 1.1435e-002, 1.9646e-005
857.02700,254.67318, 1.1445e-002, 2.0137e-005
857.52700,254.86806, 1.1455e-002, 1.9944e-005
858.02700,255.06237, 1.1466e-002, 2.0873e-005
858.52700,255.25527, 1.1476e-002, 2.0548e-005
859.02700,255.44800, 1.1486e-002, 2.0418e-005
859.52700,255.64110, 1.1497e-002, 2.0800e-005
860.02700,255.83519, 1.1507e-002, 2.2327e-005
860.52700,256.03000, 1.1518e-002, 2.1361e-005
861.02700,256.22482, 1.1529e-002, 2.1836e-005
861.52700,256.41982, 1.1540e-002, 2.1909e-005
862.02700,256.61475, 1.1551e-002, 2.1981e-005
862.52700,256.80924, 1.1562e-002, 2.2320e-005
863.02700,257.00379, 1.1573e-002, 2.2895e-005
863.52700,257.19868, 1.1584e-002, 2.1388e-005
864.02700,257.39448, 1.1595e-002, 2.1715e-005
864.52700,257.59161, 1.1607e-002, 2.3630e-005
865.02700,257.78954, 1.1618e-002, 2.2379e-005
865.52700,257.98823, 1.1630e-002, 2.3266e-005
866.02700,258.18731, 1.1641e-002, 2.3020e-005
866.52700,258.38636, 1.1653e-002, 2.2977e-005
867.02700,258.58590, 1.1664e-002, 2.2602e-005
867.52700,258.78515, 1.1676e-002, 2.1954e-005
868.02700,258.98393, 1.1687e-002, 2.2217e-005
868.52700,259.18188, 1.1699e-002, 2.1891e-005
869.02700,259.37867, 1.1709e-002, 2.2085e-005
869.52700,259.57452, 1.1720e-002, 2.1921e-005
870.02700,259.76930, 1.1731e-002, 2.2026e-005
870.52700,259.96316, 1.1742e-002, 2.1591e-005
871.02700,260.15629, 1.1753e-002, 2.2262e-005
871.52700,260.34846, 1.1764e-002, 2.1915e-005
872.02700,260.53988, 1.1775e-002, 2.2033e-005
872.52700,260.73080, 1.1786e-002, 2.1787e-005
873.02700,260.92117, 1.1797e-002, 2.1772e-005
873.52700,261.11144, 1.1808e-002, 2.1887e-005
874.02700,261.30134, 1.1819e-002, 2.1769e-005
874.52700,261.49089, 1.1830e-002, 2.1436e-005
875.02700,261.68051, 1.1841e-002, 2.1703e-005
875.52700,261.86956, 1.1852e-002, 2.1838e-005
876.02700,262.05852, 1.1863e-002, 2.1700e-005
876.52700,262.24709, 1.1874e-002, 2.1974e-005
877.02700,262.43574, 1.1885e-002, 2.2140e-005
877.52700,262.62439, 1.1896e-002, 2.1168e-005
878.02700,262.81304, 1.1907e-002, 2.2944e-005
878.52700,263.00171, 1.1918e-002, 2.2788e-005
879.02700,263.19002, 1.1930e-002, 2.3483e-005
879.52700,263.37863, 1.1941e-002, 2.2739e-005
880.02700,263.56717, 1.1952e-002, 2.2981e-005
880.52700,263.75458, 1.1964e-002, 2.2445e-005
881.02700,263.94149, 1.1975e-002, 2.2289e-005
881.52700,264.12821, 1.1987e-002, 2.2685e-005
882.02700,264.31494, 1.1998e-002, 2.3649e-005
882.52700,264.50246, 1.2010e-002, 2.2752e-005
883.02700,264.69054, 1.2022e-002, 2.3283e-005
883.52700,264.87906, 1.2033e-002, 2.3817e-005
884.02700,265.06787, 1.2045e-002, 2.4331e-005
884.52700,265.25689, 1.2057e-002, 2.4074e-005
885.02700,265.44610, 1.2069e-002, 2.4215e-005
885.52700,265.63498, 1.2081e-002, 2.3708e-005
886.02700,265.82423, 1.2093e-002, 2.4471e-005
886.52700,266.01360, 1.2106e-002, 2.4202e-005
887.02700,266.20249, 1.2118e-002, 2.4273e-005
887.52700,266.39095, 1.2130e-002, 2.4923e-005
888.02700,266.57897, 1.2143e-002, 2.4669e-005
888.52700,266.76689, 1.2156e-002, 2.5620e-005
889.02700,266.95585, 1.2168e-002, 2.6478e-005
889.52700,267.14569, 1.2182e-002, 2.5863e-005
890.02700,267.33596, 1.2195e-002, 2.6624e-005
890.52700,267.52655, 1.2208e-002, 2.6834e-005
891.02700,267.71686, 1.2222e-002, 2.6957e-005
891.52700,267.90697, 1.2235e-002, 2.6970e-005
892.02700,268.09680, 1.2248e-002, 2.7407e-005
892.52700,268.28671, 1.2262e-002, 2.7512e-005
893.02700,268.47631, 1.2276e-002, 2.8151e-005
893.52700,268.66627, 1.2290e-002, 2.8352e-005
894.02700,268.85600, 1.2305e-002, 2.9234e-005
894.52700,269.04597, 1.2319e-002, 2.8669e-005
895.02700,269.23641, 1.2334e-002, 2.8973e-005
895.52700,269.42551, 1.2348e-002, 2.9895e-005
896.02700,269.61442, 1.2363e-002, 2.9430e-005
896.52700,269.80239, 1.2378e-002, 3.1092e-005
897.02700,269.99033, 1.2394e-002, 3.0461e-005
897.52700,270.17916, 1.2409e-002, 3.2866e-005
898.02700,270.36843, 1.2426e-002, 3.2827e-005
898.52700,270.55834, 1.2442e-002, 3.3950e-005
899.02700,270.74745, 1.2459e-002, 3.4015e-005
899.52700,270.93677, 1.2477e-002, 3.4711e-005
900.02700,271.12553, 1.2494e-002, 3.5976e-005
900.52700,271.31517, 1.2512e-002, 3.6957e-005
901.02700,271.50529, 1.2531e-002, 3.8363e-005
901.52700,271.69603, 1.2550e-002, 3.8116e-005
902.02700,271.88652, 1.2569e-002, 3.9942e-005
902.52700,272.07691, 1.2589e-002, 3.9705e-005
903.02700,272.26652, 1.2609e-002, 3.9991e-005
903.52700,272.45604, 1.2629e-002, 4.1165e-005
904.02700,272.64606, 1.2651e-002, 4.3259e-005
904.52700,272.83641, 1.2672e-002, 4.4000e-005
905.02700,273.02679, 1.2694e-002, 4.4800e-005
905.52700,273.21704, 1.2717e-002, 4.4610e-005
906.02700,273.40700, 1.2739e-002, 4.6364e-005
906.52700,273.59768, 1.2763e-002, 4.7681e-005
907.02700,273.78932, 1.2787e-002, 4.8923e-005
907.52700,273.98154, 1.2812e-002, 5.1032e-005
908.02700,274.17397, 1.2838e-002, 5.1537e-005
908.52700,274.36602, 1.2863e-002, 5.1414e-005
909.02700,274.55770, 1.2889e-002, 5.0700e-005
909.52700,274.74878, 1.2915e-002, 5.1958e-005
910.02700,274.93986, 1.2942e-002, 5.5191e-005
910.52700,275.13094, 1.2970e-002, 5.6424e-005
911.02700,275.32182, 1.2998e-002, 5.7229e-005
911.52700,275.51279, 1.3028e-002, 5.7822e-005
912.02700,275.70333, 1.3057e-002, 5.8995e-005
912.52700,275.89459, 1.3087e-002, 5.8592e-005
913.02700,276.08633, 1.3117e-002, 6.1408e-005
913.52700,276.27850, 1.3148e-002, 6.4598e-005
914.02700,276.47061, 1.3180e-002, 6.5691e-005
914.52700,276.66235, 1.3214e-002, 6.5917e-005
915.02700,276.85384, 1.3247e-002, 6.7299e-005
915.52700,277.04558, 1.3281e-002, 6.9157e-005
916.02700,277.23817, 1.3316e-002, 7.1012e-005
916.52700,277.43182, 1.3351e-002, 7.1049e-005
917.02700,277.62634, 1.3387e-002, 7.0951e-005
917.52700,277.82252, 1.3422e-002, 7.1795e-005
918.02700,278.01933, 1.3459e-002, 7.3578e-005
918.52700,278.21794, 1.3496e-002, 7.5370e-005
919.02700,278.41748, 1.3533e-002, 7.5287e-005
919.52700,278.61787, 1.3571e-002, 7.4494e-005
920.02700,278.81859, 1.3609e-002, 7.7441e-005
920.52700,279.02022, 1.3648e-002, 7.7921e-005
921.02700,279.22211, 1.3687e-002, 8.0625e-005
921.52700,279.42500, 1.3724e-002, 7.3490e-005
922.02700,279.62818, 1.3763e-002, 7.8232e-005
922.52700,279.83126, 1.3803e-002, 8.0103e-005
923.02700,280.03417, 1.3843e-002, 8.1901e-005
923.52700,280.23721, 1.3884e-002, 8.3447e-005
924.02700,280.44008, 1.3926e-002, 8.4172e-005
924.52700,280.64247, 1.3967e-002, 7.7503e-005
925.02700,280.84364, 1.4007e-002, 8.3562e-005
925.52700,281.04385, 1.4049e-002, 8.5321e-005
926.02700,281.24318, 1.4092e-002, 8.6339e-005
926.52700,281.44213, 1.4135e-002, 8.8603e-005
927.02700,281.64119, 1.4179e-002, 8.8494e-005
927.52700,281.83978, 1.4224e-002, 9.1117e-005
928.02700,282.03896, 1.4270e-002, 8.9892e-005
928.52700,282.23834, 1.4315e-002, 9.3002e-005
929.02700,282.43888, 1.4363e-002, 9.6213e-005
929.52700,282.64026, 1.4410e-002, 9.3883e-005
930.02700,282.84271, 1.4458e-002, 9.8166e-005
930.52700,283.04597, 1.4506e-002, 9.6735e-005
931.02700,283.25039, 1.4555e-002, 9.4962e-005
931.52700,283.45595, 1.4603e-002, 9.6565e-005
932.02700,283.66290, 1.4652e-002, 9.9975e-005
932.52700,283.87083, 1.4703e-002, 1.0188e-004
933.02700,284.08115, 1.4754e-002, 1.0214e-004
933.52700,284.29339, 1.4806e-002, 1.0573e-004
934.02700,284.51006, 1.4860e-002, 1.0528e-004
934.52700,284.72930, 1.4915e-002, 1.1329e-004
935.02700,284.95349, 1.4973e-002, 1.1528e-004
935.52700,285.18276, 1.5032e-002, 1.1868e-004
936.02700,285.42101, 1.5094e-002, 1.2275e-004
936.52700,285.67047, 1.5159e-002, 1.3455e-004
937.02700,285.93687, 1.5229e-002, 1.4884e-004
937.52700,286.22843, 1.5306e-002, 1.5891e-004
938.02700,286.54950, 1.5390e-002, 1.8024e-004
938.52700,286.86741, 1.5472e-002, 1.5528e-004
939.02700,287.14177, 1.5541e-002, 1.2391e-004
939.52700,287.37756, 1.5600e-002, 1.1253e-004
940.02700,287.58950, 1.5655e-002, 1.0761e-004
940.52700,287.78735, 1.5710e-002, 1.0731e-004
941.02700,287.97853, 1.5764e-002, 1.0611e-004
941.52700,288.16814, 1.5819e-002, 1.1151e-004
942.02700,288.36087, 1.5875e-002, 1.1380e-004
942.52700,288.55981, 1.5933e-002, 1.1842e-004
943.02700,288.76567, 1.5993e-002, 1.2740e-004
943.52700,288.97756, 1.6058e-002, 1.3032e-004
944.02700,289.19268, 1.6124e-002, 1.3295e-004
944.52700,289.40893, 1.6189e-002, 1.2666e-004
945.02700,289.62336, 1.6252e-002, 1.2467e-004
945.52700,289.83513, 1.6313e-002, 1.1894e-004
946.02700,290.04465, 1.6374e-002, 1.2018e-004

