#EXPORTTYPE:           ,DATA ALL                                                               
#FILE:                 ,albAmel010Trun1.ngb-sle                                                
#FORMAT:               ,NETZSCH5                                                               
#FTYPE:                ,ANSI                                                                   
#IDENTITY:             ,albite 010                                                             
#DECIMAL:              ,POINT                                                                  
#SEPARATOR:            ,COMMA                                                                  
#MTYPE:                ,DIL                                                                    
#INSTRUMENT:           ,NETZSCH DIL 402C                                                       
#PROJECT:              ,feldspar                                                               
#DATE/TIME:            ,8/22/2019 10:14:26 AM (UTC-5)                                          
#CORR. FILE:           ,                                                                       
#TEMPCAL:              ,TCALZERO.TMX                                                           
#LABORATORY:           ,Mineral Physics                                                        
#OPERATOR:             ,PAG                                                                    
#REMARK:               ,bare, norm start, for short plageioclase, sapphire, amel alb 010 twin  
#SAMPLE:               ,amelia twin                                                            
#SAMPLE LENGTH /mm:    ,8.715                                                                  
#MATERIAL:             ,sapphire stnd                                                          
#MEASMODE:             ,Standard Expansion                                                     
#PURGE GAS 1:          ,ARGON                                                                  
#FLOW RATE 1 /(ml/min):,75                                                                     
#M.RANGE /µm:          ,500                                                                    
#CORR. CODE:           ,010                                                                    
#RANGE:                ,20.0°C/3.0(K/min)/1020.0°C                                             
#SEGMENT:              ,S1/1                                                                   
#SEG. 1:               ,20.0°C/3.0(K/min)/1020.0°C                                             

##Temp./°C,Time/min,dL/Lo
  21.35100,  0.00000, 1.3908e-005
  21.85100,  3.99217,-3.1942e-006
  22.35100,  4.37447,-1.4410e-005
  22.85100,  4.64006,-2.3377e-005
  23.35100,  4.85549,-3.1753e-005
  23.85100,  5.04219,-3.9835e-005
  24.35100,  5.21024,-4.6434e-005
  24.85100,  5.36457,-5.4983e-005
  25.35100,  5.50896,-6.1246e-005
  25.85100,  5.64558,-6.7038e-005
  26.35100,  5.77580,-7.2192e-005
  26.85100,  5.90102,-7.6966e-005
  27.35100,  6.02247,-8.2118e-005
  27.85100,  6.14044,-8.6282e-005
  28.35100,  6.25585,-8.9865e-005
  28.85100,  6.36941,-9.2889e-005
  29.35100,  6.48119,-9.6370e-005
  29.85100,  6.59155,-9.9256e-005
  30.35100,  6.70053,-1.0161e-004
  30.85100,  6.80871,-1.0319e-004
  31.35100,  6.91626,-1.0480e-004
  31.85100,  7.02302,-1.0663e-004
  32.35100,  7.12899,-1.0733e-004
  32.85100,  7.23488,-1.0790e-004
  33.35100,  7.34043,-1.0805e-004
  33.85100,  7.44578,-1.0774e-004
  34.35100,  7.55066,-1.0758e-004
  34.85100,  7.65542,-1.0740e-004
  35.35100,  7.76022,-1.0624e-004
  35.85100,  7.86499,-1.0526e-004
  36.35100,  7.96935,-1.0420e-004
  36.85100,  8.07412,-1.0260e-004
  37.35100,  8.17866,-1.0092e-004
  37.85100,  8.28324,-9.9050e-005
  38.35100,  8.38786,-9.7164e-005
  38.85100,  8.49220,-9.5223e-005
  39.35100,  8.59657,-9.2588e-005
  39.85100,  8.70094,-8.9701e-005
  40.35100,  8.80518,-8.7067e-005
  40.85100,  8.90943,-8.4341e-005
  41.35100,  9.01350,-8.1518e-005
  41.85100,  9.11718,-7.8452e-005
  42.35100,  9.22073,-7.5103e-005
  42.85100,  9.32392,-7.2113e-005
  43.35100,  9.42709,-6.8734e-005
  43.85100,  9.52999,-6.5611e-005
  44.35100,  9.63251,-6.2055e-005
  44.85100,  9.73480,-5.8534e-005
  45.35100,  9.83683,-5.5478e-005
  45.85100,  9.93828,-5.2122e-005
  46.35100, 10.03929,-4.8416e-005
  46.85100, 10.13974,-4.4877e-005
  47.35100, 10.23964,-4.1082e-005
  47.85100, 10.33918,-3.7697e-005
  48.35100, 10.43822,-3.3832e-005
  48.85100, 10.53698,-3.0236e-005
  49.35100, 10.63545,-2.6517e-005
  49.85100, 10.73372,-2.2345e-005
  50.35100, 10.83164,-1.8845e-005
  50.85100, 10.92918,-1.4533e-005
  51.35100, 11.02638,-1.0494e-005
  51.85100, 11.12328,-6.6876e-006
  52.35100, 11.21981,-2.7391e-006
  52.85100, 11.31602, 1.6796e-006
  53.35100, 11.41207, 5.6240e-006
  53.85100, 11.50780, 9.4644e-006
  54.35100, 11.60335, 1.3539e-005
  54.85100, 11.69874, 1.8390e-005
  55.35100, 11.79399, 2.2519e-005
  55.85100, 11.88925, 2.7081e-005
  56.35100, 11.98442, 3.1806e-005
  56.85100, 12.07949, 3.5815e-005
  57.35100, 12.17432, 4.0225e-005
  57.85100, 12.26891, 4.4944e-005
  58.35100, 12.36358, 4.9224e-005
  58.85100, 12.45834, 5.4122e-005
  59.35100, 12.55310, 5.9040e-005
  59.85100, 12.64743, 6.3601e-005
  60.35100, 12.74168, 6.8854e-005
  60.85100, 12.83580, 7.4277e-005
  61.35100, 12.93009, 7.9040e-005
  61.85100, 13.02441, 8.3854e-005
  62.35100, 13.11860, 8.9183e-005
  62.85100, 13.21256, 9.4104e-005
  63.35100, 13.30671, 9.9706e-005
  63.85100, 13.40114, 1.0482e-004
  64.35100, 13.49553, 1.0953e-004
  64.85100, 13.59001, 1.1522e-004
  65.35100, 13.68449, 1.2054e-004
  65.85100, 13.77899, 1.2627e-004
  66.35100, 13.87369, 1.3169e-004
  66.85100, 13.96837, 1.3714e-004
  67.35100, 14.06298, 1.4270e-004
  67.85100, 14.15775, 1.4901e-004
  68.35100, 14.25262, 1.5402e-004
  68.85100, 14.34733, 1.6018e-004
  69.35100, 14.44215, 1.6578e-004
  69.85100, 14.53684, 1.7172e-004
  70.35100, 14.63173, 1.7717e-004
  70.85100, 14.72662, 1.8354e-004
  71.35100, 14.82141, 1.8918e-004
  71.85100, 14.91623, 1.9494e-004
  72.35100, 15.01108, 2.0089e-004
  72.85100, 15.10614, 2.0693e-004
  73.35100, 15.20117, 2.1279e-004
  73.85100, 15.29620, 2.1871e-004
  74.35100, 15.39126, 2.2475e-004
  74.85100, 15.48654, 2.3047e-004
  75.35100, 15.58193, 2.3641e-004
  75.85100, 15.67746, 2.4237e-004
  76.35100, 15.77295, 2.4906e-004
  76.85100, 15.86853, 2.5473e-004
  77.35100, 15.96417, 2.6071e-004
  77.85100, 16.05976, 2.6727e-004
  78.35100, 16.15524, 2.7353e-004
  78.85100, 16.25063, 2.7966e-004
  79.35100, 16.34600, 2.8611e-004
  79.85100, 16.44165, 2.9236e-004
  80.35100, 16.53751, 2.9870e-004
  80.85100, 16.63363, 3.0488e-004
  81.35100, 16.73000, 3.1128e-004
  81.85100, 16.82645, 3.1717e-004
  82.35100, 16.92303, 3.2318e-004
  82.85100, 17.01963, 3.2955e-004
  83.35100, 17.11661, 3.3638e-004
  83.85100, 17.21315, 3.4236e-004
  84.35100, 17.30973, 3.4854e-004
  84.85100, 17.40620, 3.5519e-004
  85.35100, 17.50239, 3.6150e-004
  85.85100, 17.59872, 3.6774e-004
  86.35100, 17.69522, 3.7376e-004
  86.85100, 17.79164, 3.8058e-004
  87.35100, 17.88823, 3.8716e-004
  87.85100, 17.98506, 3.9384e-004
  88.35100, 18.08194, 3.9996e-004
  88.85100, 18.17937, 4.0623e-004
  89.35100, 18.27716, 4.1286e-004
  89.85100, 18.37493, 4.1932e-004
  90.35100, 18.47262, 4.2560e-004
  90.85100, 18.57043, 4.3224e-004
  91.35100, 18.66845, 4.3900e-004
  91.85100, 18.76642, 4.4533e-004
  92.35100, 18.86440, 4.5173e-004
  92.85100, 18.96229, 4.5834e-004
  93.35100, 19.06034, 4.6516e-004
  93.85100, 19.15862, 4.7158e-004
  94.35100, 19.25700, 4.7853e-004
  94.85100, 19.35554, 4.8515e-004
  95.35100, 19.45413, 4.9189e-004
  95.85100, 19.55277, 4.9830e-004
  96.35100, 19.65167, 5.0459e-004
  96.85100, 19.75065, 5.1159e-004
  97.35100, 19.84981, 5.1859e-004
  97.85100, 19.94917, 5.2497e-004
  98.35100, 20.04840, 5.3155e-004
  98.85100, 20.14776, 5.3814e-004
  99.35100, 20.24735, 5.4496e-004
  99.85100, 20.34709, 5.5205e-004
 100.35100, 20.44689, 5.5841e-004
 100.85100, 20.54664, 5.6550e-004
 101.35100, 20.64660, 5.7191e-004
 101.85100, 20.74687, 5.7859e-004
 102.35100, 20.84705, 5.8579e-004
 102.85100, 20.94714, 5.9218e-004
 103.35100, 21.04713, 5.9919e-004
 103.85100, 21.14712, 6.0564e-004
 104.35100, 21.24714, 6.1332e-004
 104.85100, 21.34724, 6.1950e-004
 105.35100, 21.44734, 6.2653e-004
 105.85100, 21.54729, 6.3337e-004
 106.35100, 21.64762, 6.4027e-004
 106.85100, 21.74793, 6.4725e-004
 107.35100, 21.84841, 6.5418e-004
 107.85100, 21.94917, 6.6115e-004
 108.35100, 22.05010, 6.6813e-004
 108.85100, 22.15122, 6.7492e-004
 109.35100, 22.25269, 6.8198e-004
 109.85100, 22.35434, 6.8823e-004
 110.35100, 22.45608, 6.9527e-004
 110.85100, 22.55811, 7.0226e-004
 111.35100, 22.66002, 7.0959e-004
 111.85100, 22.76149, 7.1612e-004
 112.35100, 22.86288, 7.2292e-004
 112.85100, 22.96431, 7.2954e-004
 113.35100, 23.06571, 7.3685e-004
 113.85100, 23.16714, 7.4372e-004
 114.35100, 23.26847, 7.5072e-004
 114.85100, 23.36986, 7.5772e-004
 115.35100, 23.47155, 7.6501e-004
 115.85100, 23.57338, 7.7179e-004
 116.35100, 23.67527, 7.7865e-004
 116.85100, 23.77720, 7.8572e-004
 117.35100, 23.87939, 7.9237e-004
 117.85100, 23.98168, 7.9968e-004
 118.35100, 24.08413, 8.0636e-004
 118.85100, 24.18697, 8.1330e-004
 119.35100, 24.28969, 8.2077e-004
 119.85100, 24.39253, 8.2809e-004
 120.35100, 24.49542, 8.3474e-004
 120.85100, 24.59832, 8.4190e-004
 121.35100, 24.70123, 8.4873e-004
 121.85100, 24.80418, 8.5600e-004
 122.35100, 24.90704, 8.6326e-004
 122.85100, 25.01009, 8.7005e-004
 123.35100, 25.11319, 8.7776e-004
 123.85100, 25.21640, 8.8404e-004
 124.35100, 25.31978, 8.9138e-004
 124.85100, 25.42334, 8.9821e-004
 125.35100, 25.52701, 9.0500e-004
 125.85100, 25.63064, 9.1208e-004
 126.35100, 25.73445, 9.1937e-004
 126.85100, 25.83803, 9.2682e-004
 127.35100, 25.94189, 9.3339e-004
 127.85100, 26.04574, 9.4062e-004
 128.35100, 26.14944, 9.4781e-004
 128.85100, 26.25307, 9.5453e-004
 129.35100, 26.35678, 9.6193e-004
 129.85100, 26.46060, 9.6944e-004
 130.35100, 26.56478, 9.7649e-004
 130.85100, 26.66877, 9.8361e-004
 131.35100, 26.77276, 9.9027e-004
 131.85100, 26.87721, 9.9750e-004
 132.35100, 26.98191, 1.0048e-003
 132.85100, 27.08674, 1.0119e-003
 133.35100, 27.19139, 1.0187e-003
 133.85100, 27.29616, 1.0259e-003
 134.35100, 27.40117, 1.0332e-003
 134.85100, 27.50624, 1.0402e-003
 135.35100, 27.61128, 1.0475e-003
 135.85100, 27.71621, 1.0544e-003
 136.35100, 27.82130, 1.0618e-003
 136.85100, 27.92648, 1.0688e-003
 137.35100, 28.03171, 1.0759e-003
 137.85100, 28.13691, 1.0830e-003
 138.35100, 28.24229, 1.0903e-003
 138.85100, 28.34769, 1.0976e-003
 139.35100, 28.45321, 1.1049e-003
 139.85100, 28.55876, 1.1117e-003
 140.35100, 28.66414, 1.1191e-003
 140.85100, 28.76949, 1.1261e-003
 141.35100, 28.87504, 1.1332e-003
 141.85100, 28.98033, 1.1410e-003
 142.35100, 29.08576, 1.1479e-003
 142.85100, 29.19129, 1.1553e-003
 143.35100, 29.29691, 1.1624e-003
 143.85100, 29.40282, 1.1693e-003
 144.35100, 29.50860, 1.1767e-003
 144.85100, 29.61441, 1.1834e-003
 145.35100, 29.72046, 1.1909e-003
 145.85100, 29.82654, 1.1981e-003
 146.35100, 29.93255, 1.2055e-003
 146.85100, 30.03865, 1.2124e-003
 147.35100, 30.14486, 1.2196e-003
 147.85100, 30.25118, 1.2271e-003
 148.35100, 30.35761, 1.2341e-003
 148.85100, 30.46383, 1.2413e-003
 149.35100, 30.57016, 1.2490e-003
 149.85100, 30.67659, 1.2563e-003
 150.35100, 30.78303, 1.2630e-003
 150.85100, 30.88954, 1.2703e-003
 151.35100, 30.99606, 1.2773e-003
 151.85100, 31.10292, 1.2848e-003
 152.35100, 31.20995, 1.2921e-003
 152.85100, 31.31679, 1.2990e-003
 153.35100, 31.42338, 1.3067e-003
 153.85100, 31.53032, 1.3139e-003
 154.35100, 31.63760, 1.3210e-003
 154.85100, 31.74500, 1.3280e-003
 155.35100, 31.85235, 1.3355e-003
 155.85100, 31.95981, 1.3424e-003
 156.35100, 32.06760, 1.3503e-003
 156.85100, 32.17570, 1.3574e-003
 157.35100, 32.28352, 1.3648e-003
 157.85100, 32.39111, 1.3716e-003
 158.35100, 32.49862, 1.3789e-003
 158.85100, 32.60616, 1.3861e-003
 159.35100, 32.71380, 1.3937e-003
 159.85100, 32.82144, 1.4009e-003
 160.35100, 32.92903, 1.4082e-003
 160.85100, 33.03659, 1.4154e-003
 161.35100, 33.14453, 1.4224e-003
 161.85100, 33.25296, 1.4301e-003
 162.35100, 33.36107, 1.4373e-003
 162.85100, 33.46918, 1.4443e-003
 163.35100, 33.57737, 1.4518e-003
 163.85100, 33.68564, 1.4587e-003
 164.35100, 33.79407, 1.4662e-003
 164.85100, 33.90236, 1.4733e-003
 165.35100, 34.01047, 1.4808e-003
 165.85100, 34.11892, 1.4884e-003
 166.35100, 34.22731, 1.4954e-003
 166.85100, 34.33584, 1.5028e-003
 167.35100, 34.44458, 1.5101e-003
 167.85100, 34.55337, 1.5173e-003
 168.35100, 34.66224, 1.5242e-003
 168.85100, 34.77132, 1.5313e-003
 169.35100, 34.88020, 1.5387e-003
 169.85100, 34.98938, 1.5459e-003
 170.35100, 35.09853, 1.5532e-003
 170.85100, 35.20751, 1.5608e-003
 171.35100, 35.31680, 1.5679e-003
 171.85100, 35.42579, 1.5754e-003
 172.35100, 35.53518, 1.5828e-003
 172.85100, 35.64475, 1.5902e-003
 173.35100, 35.75425, 1.5972e-003
 173.85100, 35.86416, 1.6047e-003
 174.35100, 35.97424, 1.6123e-003
 174.85100, 36.08449, 1.6199e-003
 175.35100, 36.19459, 1.6271e-003
 175.85100, 36.30464, 1.6351e-003
 176.35100, 36.41472, 1.6421e-003
 176.85100, 36.52486, 1.6498e-003
 177.35100, 36.63473, 1.6571e-003
 177.85100, 36.74473, 1.6647e-003
 178.35100, 36.85474, 1.6719e-003
 178.85100, 36.96496, 1.6795e-003
 179.35100, 37.07532, 1.6882e-003
 179.85100, 37.18596, 1.6961e-003
 180.35100, 37.29635, 1.7037e-003
 180.85100, 37.40680, 1.7111e-003
 181.35100, 37.51738, 1.7187e-003
 181.85100, 37.62801, 1.7265e-003
 182.35100, 37.73868, 1.7341e-003
 182.85100, 37.84912, 1.7413e-003
 183.35100, 37.95997, 1.7492e-003
 183.85100, 38.07094, 1.7567e-003
 184.35100, 38.18183, 1.7634e-003
 184.85100, 38.29300, 1.7706e-003
 185.35100, 38.40436, 1.7776e-003
 185.85100, 38.51582, 1.7850e-003
 186.35100, 38.62746, 1.7927e-003
 186.85100, 38.73923, 1.8000e-003
 187.35100, 38.85119, 1.8076e-003
 187.85100, 38.96313, 1.8148e-003
 188.35100, 39.07479, 1.8227e-003
 188.85100, 39.18640, 1.8301e-003
 189.35100, 39.29804, 1.8379e-003
 189.85100, 39.40937, 1.8452e-003
 190.35100, 39.52089, 1.8525e-003
 190.85100, 39.63224, 1.8602e-003
 191.35100, 39.74386, 1.8676e-003
 191.85100, 39.85606, 1.8754e-003
 192.35100, 39.96806, 1.8831e-003
 192.85100, 40.08005, 1.8904e-003
 193.35100, 40.19205, 1.8977e-003
 193.85100, 40.30419, 1.9057e-003
 194.35100, 40.41624, 1.9132e-003
 194.85100, 40.52803, 1.9205e-003
 195.35100, 40.64019, 1.9286e-003
 195.85100, 40.75225, 1.9360e-003
 196.35100, 40.86448, 1.9438e-003
 196.85100, 40.97675, 1.9511e-003
 197.35100, 41.08925, 1.9591e-003
 197.85100, 41.20211, 1.9662e-003
 198.35100, 41.31501, 1.9738e-003
 198.85100, 41.42827, 1.9816e-003
 199.35100, 41.54176, 1.9890e-003
 199.85100, 41.65534, 1.9968e-003
 200.35100, 41.76915, 2.0045e-003
 200.85100, 41.88276, 2.0123e-003
 201.35100, 41.99655, 2.0201e-003
 201.85100, 42.11007, 2.0277e-003
 202.35100, 42.22382, 2.0354e-003
 202.85100, 42.33758, 2.0429e-003
 203.35100, 42.45113, 2.0506e-003
 203.85100, 42.56480, 2.0583e-003
 204.35100, 42.67834, 2.0658e-003
 204.85100, 42.79216, 2.0736e-003
 205.35100, 42.90591, 2.0819e-003
 205.85100, 43.01959, 2.0894e-003
 206.35100, 43.13320, 2.0964e-003
 206.85100, 43.24707, 2.1042e-003
 207.35100, 43.36094, 2.1122e-003
 207.85100, 43.47475, 2.1192e-003
 208.35100, 43.58875, 2.1272e-003
 208.85100, 43.70280, 2.1347e-003
 209.35100, 43.81719, 2.1422e-003
 209.85100, 43.93159, 2.1495e-003
 210.35100, 44.04610, 2.1575e-003
 210.85100, 44.16097, 2.1651e-003
 211.35100, 44.27580, 2.1726e-003
 211.85100, 44.39071, 2.1804e-003
 212.35100, 44.50562, 2.1880e-003
 212.85100, 44.62067, 2.1951e-003
 213.35100, 44.73570, 2.2028e-003
 213.85100, 44.85072, 2.2109e-003
 214.35100, 44.96560, 2.2182e-003
 214.85100, 45.08044, 2.2258e-003
 215.35100, 45.19530, 2.2332e-003
 215.85100, 45.31021, 2.2408e-003
 216.35100, 45.42526, 2.2488e-003
 216.85100, 45.54029, 2.2561e-003
 217.35100, 45.65561, 2.2640e-003
 217.85100, 45.77109, 2.2718e-003
 218.35100, 45.88689, 2.2796e-003
 218.85100, 46.00257, 2.2873e-003
 219.35100, 46.11831, 2.2952e-003
 219.85100, 46.23416, 2.3027e-003
 220.35100, 46.35008, 2.3104e-003
 220.85100, 46.46609, 2.3178e-003
 221.35100, 46.58215, 2.3261e-003
 221.85100, 46.69832, 2.3338e-003
 222.35100, 46.81458, 2.3415e-003
 222.85100, 46.93088, 2.3487e-003
 223.35100, 47.04748, 2.3567e-003
 223.85100, 47.16402, 2.3645e-003
 224.35100, 47.28066, 2.3723e-003
 224.85100, 47.39745, 2.3868e-003
 225.35100, 47.51436, 2.3939e-003
 225.85100, 47.63188, 2.4017e-003
 226.35100, 47.74939, 2.4093e-003
 226.85100, 47.86689, 2.4174e-003
 227.35100, 47.98422, 2.4247e-003
 227.85100, 48.10136, 2.4323e-003
 228.35100, 48.21835, 2.4418e-003
 228.85100, 48.33491, 2.4504e-003
 229.35100, 48.45130, 2.4582e-003
 229.85100, 48.56819, 2.4663e-003
 230.35100, 48.68513, 2.4738e-003
 230.85100, 48.80238, 2.4815e-003
 231.35100, 48.91978, 2.4889e-003
 231.85100, 49.03740, 2.4968e-003
 232.35100, 49.15521, 2.5047e-003
 232.85100, 49.27292, 2.5119e-003
 233.35100, 49.39077, 2.5199e-003
 233.85100, 49.50864, 2.5272e-003
 234.35100, 49.62653, 2.5353e-003
 234.85100, 49.74461, 2.5432e-003
 235.35100, 49.86273, 2.5506e-003
 235.85100, 49.98084, 2.5585e-003
 236.35100, 50.09922, 2.5680e-003
 236.85100, 50.21764, 2.5761e-003
 237.35100, 50.33623, 2.5834e-003
 237.85100, 50.45507, 2.5915e-003
 238.35100, 50.57412, 2.6014e-003
 238.85100, 50.69324, 2.6087e-003
 239.35100, 50.81237, 2.6171e-003
 239.85100, 50.93187, 2.6250e-003
 240.35100, 51.05161, 2.6331e-003
 240.85100, 51.17143, 2.6410e-003
 241.35100, 51.29118, 2.6527e-003
 241.85100, 51.41108, 2.6615e-003
 242.35100, 51.53117, 2.6715e-003
 242.85100, 51.65143, 2.6815e-003
 243.35100, 51.77201, 2.6896e-003
 243.85100, 51.89257, 2.6981e-003
 244.35100, 52.01358, 2.7071e-003
 244.85100, 52.13482, 2.7153e-003
 245.35100, 52.25616, 2.7233e-003
 245.85100, 52.37723, 2.7314e-003
 246.35100, 52.49833, 2.7396e-003
 246.85100, 52.61958, 2.7479e-003
 247.35100, 52.74062, 2.7560e-003
 247.85100, 52.86173, 2.7641e-003
 248.35100, 52.98292, 2.7746e-003
 248.85100, 53.10424, 2.7830e-003
 249.35100, 53.22543, 2.7908e-003
 249.85100, 53.34663, 2.7988e-003
 250.35100, 53.46785, 2.8065e-003
 250.85100, 53.58900, 2.8141e-003
 251.35100, 53.70992, 2.8219e-003
 251.85100, 53.83096, 2.8293e-003
 252.35100, 53.95179, 2.8373e-003
 252.85100, 54.07223, 2.8458e-003
 253.35100, 54.19248, 2.8530e-003
 253.85100, 54.31241, 2.8611e-003
 254.35100, 54.43215, 2.8693e-003
 254.85100, 54.55145, 2.8765e-003
 255.35100, 54.67041, 2.8839e-003
 255.85100, 54.78910, 2.8909e-003
 256.35100, 54.90761, 2.8981e-003
 256.85100, 55.02580, 2.9057e-003
 257.35100, 55.14372, 2.9130e-003
 257.85100, 55.26126, 2.9207e-003
 258.35100, 55.37859, 2.9280e-003
 258.85100, 55.49576, 2.9350e-003
 259.35100, 55.61256, 2.9431e-003
 259.85100, 55.72922, 2.9505e-003
 260.35100, 55.84576, 2.9580e-003
 260.85100, 55.96242, 2.9652e-003
 261.35100, 56.07882, 2.9723e-003
 261.85100, 56.19512, 2.9809e-003
 262.35100, 56.31143, 2.9885e-003
 262.85100, 56.42769, 2.9976e-003
 263.35100, 56.54393, 3.0049e-003
 263.85100, 56.66000, 3.0122e-003
 264.35100, 56.77640, 3.0199e-003
 264.85100, 56.89297, 3.0278e-003
 265.35100, 57.00990, 3.0353e-003
 265.85100, 57.12673, 3.0426e-003
 266.35100, 57.24404, 3.0502e-003
 266.85100, 57.36156, 3.0577e-003
 267.35100, 57.47910, 3.0654e-003
 267.85100, 57.59684, 3.0739e-003
 268.35100, 57.71477, 3.0825e-003
 268.85100, 57.83309, 3.0905e-003
 269.35100, 57.95136, 3.0979e-003
 269.85100, 58.06985, 3.1058e-003
 270.35100, 58.18864, 3.1138e-003
 270.85100, 58.30781, 3.1217e-003
 271.35100, 58.42710, 3.1293e-003
 271.85100, 58.54662, 3.1380e-003
 272.35100, 58.66642, 3.1462e-003
 272.85100, 58.78658, 3.1549e-003
 273.35100, 58.90710, 3.1629e-003
 273.85100, 59.02755, 3.1714e-003
 274.35100, 59.14808, 3.1802e-003
 274.85100, 59.26879, 3.1883e-003
 275.35100, 59.38970, 3.1966e-003
 275.85100, 59.51024, 3.2046e-003
 276.35100, 59.63091, 3.2126e-003
 276.85100, 59.75171, 3.2204e-003
 277.35100, 59.87255, 3.2284e-003
 277.85100, 59.99381, 3.2367e-003
 278.35100, 60.11536, 3.2451e-003
 278.85100, 60.23753, 3.2530e-003
 279.35100, 60.35986, 3.2609e-003
 279.85100, 60.48251, 3.2686e-003
 280.35100, 60.60564, 3.2778e-003
 280.85100, 60.72861, 3.2874e-003
 281.35100, 60.85190, 3.2957e-003
 281.85100, 60.97527, 3.3040e-003
 282.35100, 61.09882, 3.3140e-003
 282.85100, 61.22250, 3.3216e-003
 283.35100, 61.34644, 3.3295e-003
 283.85100, 61.47044, 3.3375e-003
 284.35100, 61.59430, 3.3454e-003
 284.85100, 61.71835, 3.3532e-003
 285.35100, 61.84255, 3.3629e-003
 285.85100, 61.96676, 3.3707e-003
 286.35100, 62.09129, 3.3785e-003
 286.85100, 62.21590, 3.3865e-003
 287.35100, 62.34090, 3.3943e-003
 287.85100, 62.46578, 3.4044e-003
 288.35100, 62.59099, 3.4119e-003
 288.85100, 62.71646, 3.4212e-003
 289.35100, 62.84219, 3.4298e-003
 289.85100, 62.96802, 3.4380e-003
 290.35100, 63.09417, 3.4457e-003
 290.85100, 63.22043, 3.4535e-003
 291.35100, 63.34665, 3.4617e-003
 291.85100, 63.47288, 3.4698e-003
 292.35100, 63.59905, 3.4787e-003
 292.85100, 63.72525, 3.4867e-003
 293.35100, 63.85170, 3.4946e-003
 293.85100, 63.97856, 3.5043e-003
 294.35100, 64.10567, 3.5123e-003
 294.85100, 64.23298, 3.5200e-003
 295.35100, 64.36066, 3.5279e-003
 295.85100, 64.48858, 3.5359e-003
 296.35100, 64.61654, 3.5442e-003
 296.85100, 64.74448, 3.5530e-003
 297.35100, 64.87263, 3.5680e-003
 297.85100, 65.00097, 3.5770e-003
 298.35100, 65.12937, 3.5861e-003
 298.85100, 65.25782, 3.5946e-003
 299.35100, 65.38646, 3.6026e-003
 299.85100, 65.51514, 3.6108e-003
 300.35100, 65.64381, 3.6188e-003
 300.85100, 65.77257, 3.6266e-003
 301.35100, 65.90131, 3.6350e-003
 301.85100, 66.03022, 3.6440e-003
 302.35100, 66.15906, 3.6512e-003
 302.85100, 66.28793, 3.6672e-003
 303.35100, 66.41701, 3.6746e-003
 303.85100, 66.54609, 3.6825e-003
 304.35100, 66.67539, 3.6900e-003
 304.85100, 66.80486, 3.6984e-003
 305.35100, 66.93451, 3.7058e-003
 305.85100, 67.06436, 3.7138e-003
 306.35100, 67.19432, 3.7235e-003
 306.85100, 67.32478, 3.7314e-003
 307.35100, 67.45516, 3.7392e-003
 307.85100, 67.58538, 3.7474e-003
 308.35100, 67.71570, 3.7561e-003
 308.85100, 67.84610, 3.7645e-003
 309.35100, 67.97654, 3.7720e-003
 309.85100, 68.10712, 3.7807e-003
 310.35100, 68.23796, 3.7884e-003
 310.85100, 68.36908, 3.7966e-003
 311.35100, 68.50009, 3.8043e-003
 311.85100, 68.63111, 3.8132e-003
 312.35100, 68.76212, 3.8212e-003
 312.85100, 68.89326, 3.8306e-003
 313.35100, 69.02451, 3.8381e-003
 313.85100, 69.15605, 3.8461e-003
 314.35100, 69.28764, 3.8556e-003
 314.85100, 69.41921, 3.8660e-003
 315.35100, 69.55106, 3.8742e-003
 315.85100, 69.68293, 3.8827e-003
 316.35100, 69.81487, 3.8926e-003
 316.85100, 69.94705, 3.9001e-003
 317.35100, 70.07914, 3.9084e-003
 317.85100, 70.21125, 3.9165e-003
 318.35100, 70.34333, 3.9255e-003
 318.85100, 70.47526, 3.9332e-003
 319.35100, 70.60693, 3.9422e-003
 319.85100, 70.73914, 3.9506e-003
 320.35100, 70.87131, 3.9587e-003
 320.85100, 71.00381, 3.9670e-003
 321.35100, 71.13637, 3.9748e-003
 321.85100, 71.26922, 3.9832e-003
 322.35100, 71.40215, 3.9911e-003
 322.85100, 71.53551, 4.0006e-003
 323.35100, 71.66879, 4.0077e-003
 323.85100, 71.80225, 4.0162e-003
 324.35100, 71.93577, 4.0240e-003
 324.85100, 72.06943, 4.0335e-003
 325.35100, 72.20277, 4.0417e-003
 325.85100, 72.33592, 4.0496e-003
 326.35100, 72.46902, 4.0586e-003
 326.85100, 72.60227, 4.0678e-003
 327.35100, 72.73535, 4.0764e-003
 327.85100, 72.86904, 4.0840e-003
 328.35100, 73.00298, 4.0923e-003
 328.85100, 73.13722, 4.0999e-003
 329.35100, 73.27145, 4.1082e-003
 329.85100, 73.40570, 4.1159e-003
 330.35100, 73.54003, 4.1244e-003
 330.85100, 73.67436, 4.1323e-003
 331.35100, 73.80879, 4.1399e-003
 331.85100, 73.94341, 4.1486e-003
 332.35100, 74.07802, 4.1574e-003
 332.85100, 74.21240, 4.1660e-003
 333.35100, 74.34670, 4.1740e-003
 333.85100, 74.48113, 4.1820e-003
 334.35100, 74.61563, 4.1898e-003
 334.85100, 74.75010, 4.1984e-003
 335.35100, 74.88498, 4.2061e-003
 335.85100, 75.01992, 4.2141e-003
 336.35100, 75.15487, 4.2223e-003
 336.85100, 75.28978, 4.2299e-003
 337.35100, 75.42492, 4.2378e-003
 337.85100, 75.56015, 4.2457e-003
 338.35100, 75.69540, 4.2544e-003
 338.85100, 75.83082, 4.2626e-003
 339.35100, 75.96623, 4.2710e-003
 339.85100, 76.10167, 4.2787e-003
 340.35100, 76.23728, 4.2869e-003
 340.85100, 76.37275, 4.2953e-003
 341.35100, 76.50815, 4.3032e-003
 341.85100, 76.64394, 4.3113e-003
 342.35100, 76.77977, 4.3191e-003
 342.85100, 76.91560, 4.3283e-003
 343.35100, 77.05151, 4.3363e-003
 343.85100, 77.18761, 4.3452e-003
 344.35100, 77.32379, 4.3528e-003
 344.85100, 77.45996, 4.3615e-003
 345.35100, 77.59608, 4.3690e-003
 345.85100, 77.73215, 4.3784e-003
 346.35100, 77.86845, 4.3874e-003
 346.85100, 78.00460, 4.3957e-003
 347.35100, 78.14087, 4.4033e-003
 347.85100, 78.27759, 4.4113e-003
 348.35100, 78.41453, 4.4196e-003
 348.85100, 78.55145, 4.4278e-003
 349.35100, 78.68848, 4.4364e-003
 349.85100, 78.82557, 4.4458e-003
 350.35100, 78.96245, 4.4547e-003
 350.85100, 79.09928, 4.4622e-003
 351.35100, 79.23615, 4.4700e-003
 351.85100, 79.37320, 4.4779e-003
 352.35100, 79.51007, 4.4862e-003
 352.85100, 79.64762, 4.4945e-003
 353.35100, 79.78520, 4.5024e-003
 353.85100, 79.92309, 4.5113e-003
 354.35100, 80.06122, 4.5200e-003
 354.85100, 80.19936, 4.5277e-003
 355.35100, 80.33741, 4.5366e-003
 355.85100, 80.47560, 4.5447e-003
 356.35100, 80.61372, 4.5531e-003
 356.85100, 80.75156, 4.5609e-003
 357.35100, 80.88940, 4.5693e-003
 357.85100, 81.02738, 4.5776e-003
 358.35100, 81.16536, 4.5861e-003
 358.85100, 81.30335, 4.5941e-003
 359.35100, 81.44125, 4.6017e-003
 359.85100, 81.57973, 4.6094e-003
 360.35100, 81.71846, 4.6174e-003
 360.85100, 81.85719, 4.6279e-003
 361.35100, 81.99582, 4.6365e-003
 361.85100, 82.13508, 4.6450e-003
 362.35100, 82.27435, 4.6534e-003
 362.85100, 82.41343, 4.6613e-003
 363.35100, 82.55248, 4.6693e-003
 363.85100, 82.69187, 4.6773e-003
 364.35100, 82.83110, 4.6858e-003
 364.85100, 82.97036, 4.6941e-003
 365.35100, 83.10975, 4.7020e-003
 365.85100, 83.24942, 4.7104e-003
 366.35100, 83.38887, 4.7190e-003
 366.85100, 83.52855, 4.7273e-003
 367.35100, 83.66836, 4.7351e-003
 367.85100, 83.80827, 4.7442e-003
 368.35100, 83.94831, 4.7524e-003
 368.85100, 84.08860, 4.7605e-003
 369.35100, 84.22879, 4.7690e-003
 369.85100, 84.36904, 4.7769e-003
 370.35100, 84.50946, 4.7853e-003
 370.85100, 84.65010, 4.7941e-003
 371.35100, 84.79088, 4.8020e-003
 371.85100, 84.93179, 4.8105e-003
 372.35100, 85.07296, 4.8190e-003
 372.85100, 85.21407, 4.8275e-003
 373.35100, 85.35487, 4.8361e-003
 373.85100, 85.49579, 4.8440e-003
 374.35100, 85.63682, 4.8529e-003
 374.85100, 85.77779, 4.8610e-003
 375.35100, 85.91862, 4.8698e-003
 375.85100, 86.05982, 4.8785e-003
 376.35100, 86.20092, 4.8867e-003
 376.85100, 86.34215, 4.8951e-003
 377.35100, 86.48356, 4.9034e-003
 377.85100, 86.62513, 4.9117e-003
 378.35100, 86.76671, 4.9195e-003
 378.85100, 86.90841, 4.9290e-003
 379.35100, 87.05008, 4.9369e-003
 379.85100, 87.19155, 4.9452e-003
 380.35100, 87.33312, 4.9542e-003
 380.85100, 87.47489, 4.9620e-003
 381.35100, 87.61668, 4.9712e-003
 381.85100, 87.75864, 4.9796e-003
 382.35100, 87.90114, 4.9877e-003
 382.85100, 88.04365, 4.9967e-003
 383.35100, 88.18579, 5.0050e-003
 383.85100, 88.32803, 5.0134e-003
 384.35100, 88.47026, 5.0214e-003
 384.85100, 88.61221, 5.0292e-003
 385.35100, 88.75438, 5.0380e-003
 385.85100, 88.89672, 5.0461e-003
 386.35100, 89.03903, 5.0551e-003
 386.85100, 89.18169, 5.0631e-003
 387.35100, 89.32431, 5.0719e-003
 387.85100, 89.46698, 5.0803e-003
 388.35100, 89.60998, 5.0889e-003
 388.85100, 89.75313, 5.0977e-003
 389.35100, 89.89599, 5.1055e-003
 389.85100, 90.03901, 5.1143e-003
 390.35100, 90.18221, 5.1231e-003
 390.85100, 90.32549, 5.1309e-003
 391.35100, 90.46917, 5.1397e-003
 391.85100, 90.61305, 5.1483e-003
 392.35100, 90.75748, 5.1570e-003
 392.85100, 90.90213, 5.1656e-003
 393.35100, 91.04696, 5.1740e-003
 393.85100, 91.19183, 5.1826e-003
 394.35100, 91.33669, 5.1912e-003
 394.85100, 91.48139, 5.1998e-003
 395.35100, 91.62586, 5.2081e-003
 395.85100, 91.77026, 5.2161e-003
 396.35100, 91.91474, 5.2245e-003
 396.85100, 92.05924, 5.2331e-003
 397.35100, 92.20317, 5.2415e-003
 397.85100, 92.34720, 5.2501e-003
 398.35100, 92.49142, 5.2586e-003
 398.85100, 92.63546, 5.2672e-003
 399.35100, 92.77978, 5.2755e-003
 399.85100, 92.92475, 5.2843e-003
 400.35100, 93.06988, 5.2927e-003
 400.85100, 93.21536, 5.3011e-003
 401.35100, 93.36107, 5.3097e-003
 401.85100, 93.50633, 5.3179e-003
 402.35100, 93.65152, 5.3266e-003
 402.85100, 93.79672, 5.3350e-003
 403.35100, 93.94236, 5.3436e-003
 403.85100, 94.08780, 5.3523e-003
 404.35100, 94.23382, 5.3611e-003
 404.85100, 94.37981, 5.3694e-003
 405.35100, 94.52579, 5.3779e-003
 405.85100, 94.67099, 5.3865e-003
 406.35100, 94.81681, 5.3947e-003
 406.85100, 94.96251, 5.4039e-003
 407.35100, 95.10869, 5.4129e-003
 407.85100, 95.25468, 5.4208e-003
 408.35100, 95.40071, 5.4293e-003
 408.85100, 95.54645, 5.4383e-003
 409.35100, 95.69327, 5.4476e-003
 409.85100, 95.84008, 5.4567e-003
 410.35100, 95.98696, 5.4650e-003
 410.85100, 96.13391, 5.4734e-003
 411.35100, 96.28089, 5.4826e-003
 411.85100, 96.42742, 5.4912e-003
 412.35100, 96.57398, 5.4997e-003
 412.85100, 96.72094, 5.5088e-003
 413.35100, 96.86822, 5.5173e-003
 413.85100, 97.01567, 5.5266e-003
 414.35100, 97.16283, 5.5344e-003
 414.85100, 97.31018, 5.5438e-003
 415.35100, 97.45765, 5.5523e-003
 415.85100, 97.60511, 5.5611e-003
 416.35100, 97.75283, 5.5696e-003
 416.85100, 97.90060, 5.5781e-003
 417.35100, 98.04815, 5.5867e-003
 417.85100, 98.19577, 5.5950e-003
 418.35100, 98.34392, 5.6036e-003
 418.85100, 98.49190, 5.6122e-003
 419.35100, 98.63989, 5.6204e-003
 419.85100, 98.78776, 5.6288e-003
 420.35100, 98.93542, 5.6378e-003
 420.85100, 99.08289, 5.6467e-003
 421.35100, 99.23082, 5.6549e-003
 421.85100, 99.37920, 5.6639e-003
 422.35100, 99.52822, 5.6729e-003
 422.85100, 99.67742, 5.6817e-003
 423.35100, 99.82683, 5.6900e-003
 423.85100, 99.97562, 5.6986e-003
 424.35100,100.12401, 5.7094e-003
 424.85100,100.27276, 5.7179e-003
 425.35100,100.42169, 5.7267e-003
 425.85100,100.57047, 5.7355e-003
 426.35100,100.71931, 5.7437e-003
 426.85100,100.86834, 5.7531e-003
 427.35100,101.01715, 5.7614e-003
 427.85100,101.16610, 5.7696e-003
 428.35100,101.31526, 5.7782e-003
 428.85100,101.46527, 5.7869e-003
 429.35100,101.61573, 5.7957e-003
 429.85100,101.76626, 5.8043e-003
 430.35100,101.91698, 5.8135e-003
 430.85100,102.06778, 5.8224e-003
 431.35100,102.21822, 5.8318e-003
 431.85100,102.36836, 5.8417e-003
 432.35100,102.51890, 5.8505e-003
 432.85100,102.66976, 5.8596e-003
 433.35100,102.82114, 5.8680e-003
 433.85100,102.97314, 5.8775e-003
 434.35100,103.12616, 5.8867e-003
 434.85100,103.27962, 5.8955e-003
 435.35100,103.43323, 5.9057e-003
 435.85100,103.58742, 5.9145e-003
 436.35100,103.74198, 5.9244e-003
 436.85100,103.89650, 5.9344e-003
 437.35100,104.05082, 5.9438e-003
 437.85100,104.20535, 5.9528e-003
 438.35100,104.35951, 5.9621e-003
 438.85100,104.51356, 5.9712e-003
 439.35100,104.66725, 5.9807e-003
 439.85100,104.82107, 5.9900e-003
 440.35100,104.97434, 5.9989e-003
 440.85100,105.12716, 6.0076e-003
 441.35100,105.27929, 6.0165e-003
 441.85100,105.43092, 6.0248e-003
 442.35100,105.58181, 6.0339e-003
 442.85100,105.73168, 6.0419e-003
 443.35100,105.88100, 6.0504e-003
 443.85100,106.02958, 6.0594e-003
 444.35100,106.17751, 6.0675e-003
 444.85100,106.32503, 6.0758e-003
 445.35100,106.47233, 6.0841e-003
 445.85100,106.61903, 6.0928e-003
 446.35100,106.76542, 6.1016e-003
 446.85100,106.91159, 6.1095e-003
 447.35100,107.05745, 6.1182e-003
 447.85100,107.20308, 6.1264e-003
 448.35100,107.34870, 6.1352e-003
 448.85100,107.49413, 6.1436e-003
 449.35100,107.63974, 6.1523e-003
 449.85100,107.78512, 6.1628e-003
 450.35100,107.93076, 6.1709e-003
 450.85100,108.07635, 6.1799e-003
 451.35100,108.22223, 6.1887e-003
 451.85100,108.36819, 6.1983e-003
 452.35100,108.51473, 6.2078e-003
 452.85100,108.66117, 6.2163e-003
 453.35100,108.80788, 6.2262e-003
 453.85100,108.95433, 6.2355e-003
 454.35100,109.10125, 6.2455e-003
 454.85100,109.24834, 6.2547e-003
 455.35100,109.39593, 6.2652e-003
 455.85100,109.54388, 6.2746e-003
 456.35100,109.69257, 6.2838e-003
 456.85100,109.84125, 6.2959e-003
 457.35100,109.99031, 6.3070e-003
 457.85100,110.13976, 6.3161e-003
 458.35100,110.29016, 6.3255e-003
 458.85100,110.44081, 6.3346e-003
 459.35100,110.59115, 6.3432e-003
 459.85100,110.74176, 6.3528e-003
 460.35100,110.89247, 6.3683e-003
 460.85100,111.04329, 6.3779e-003
 461.35100,111.19449, 6.3864e-003
 461.85100,111.34633, 6.3953e-003
 462.35100,111.49826, 6.4047e-003
 462.85100,111.65039, 6.4351e-003
 463.35100,111.80244, 6.4447e-003
 463.85100,111.95491, 6.4539e-003
 464.35100,112.10747, 6.4631e-003
 464.85100,112.26012, 6.4794e-003
 465.35100,112.41267, 6.4890e-003
 465.85100,112.56552, 6.4988e-003
 466.35100,112.71861, 6.5196e-003
 466.85100,112.87200, 6.5295e-003
 467.35100,113.02574, 6.5388e-003
 467.85100,113.17965, 6.5531e-003
 468.35100,113.33345, 6.5630e-003
 468.85100,113.48721, 6.5825e-003
 469.35100,113.64125, 6.5940e-003
 469.85100,113.79555, 6.6030e-003
 470.35100,113.95010, 6.6125e-003
 470.85100,114.10535, 6.6211e-003
 471.35100,114.26113, 6.6349e-003
 471.85100,114.41708, 6.6455e-003
 472.35100,114.57323, 6.6551e-003
 472.85100,114.72984, 6.6651e-003
 473.35100,114.88617, 6.6745e-003
 473.85100,115.04283, 6.6871e-003
 474.35100,115.19952, 6.6986e-003
 474.85100,115.35615, 6.7078e-003
 475.35100,115.51298, 6.7179e-003
 475.85100,115.67017, 6.7314e-003
 476.35100,115.82690, 6.7438e-003
 476.85100,115.98421, 6.7527e-003
 477.35100,116.14141, 6.7630e-003
 477.85100,116.29868, 6.7726e-003
 478.35100,116.45593, 6.7867e-003
 478.85100,116.61372, 6.8026e-003
 479.35100,116.77140, 6.8160e-003
 479.85100,116.92923, 6.8272e-003
 480.35100,117.08759, 6.8374e-003
 480.85100,117.24606, 6.8469e-003
 481.35100,117.40503, 6.8602e-003
 481.85100,117.56360, 6.8708e-003
 482.35100,117.72174, 6.8807e-003
 482.85100,117.87993, 6.8906e-003
 483.35100,118.03817, 6.8994e-003
 483.85100,118.19640, 6.9093e-003
 484.35100,118.35546, 6.9199e-003
 484.85100,118.51457, 6.9303e-003
 485.35100,118.67361, 6.9416e-003
 485.85100,118.83275, 6.9513e-003
 486.35100,118.99156, 6.9613e-003
 486.85100,119.15032, 6.9698e-003
 487.35100,119.30930, 6.9796e-003
 487.85100,119.46854, 6.9918e-003
 488.35100,119.62782, 7.0019e-003
 488.85100,119.78762, 7.0115e-003
 489.35100,119.94732, 7.0230e-003
 489.85100,120.10691, 7.0333e-003
 490.35100,120.26703, 7.0424e-003
 490.85100,120.42744, 7.0521e-003
 491.35100,120.58766, 7.0619e-003
 491.85100,120.74798, 7.0715e-003
 492.35100,120.90839, 7.0810e-003
 492.85100,121.06854, 7.0904e-003
 493.35100,121.22904, 7.0992e-003
 493.85100,121.38987, 7.1091e-003
 494.35100,121.55090, 7.1181e-003
 494.85100,121.71198, 7.1273e-003
 495.35100,121.87366, 7.1369e-003
 495.85100,122.03533, 7.1461e-003
 496.35100,122.19689, 7.1553e-003
 496.85100,122.35852, 7.1657e-003
 497.35100,122.51957, 7.1757e-003
 497.85100,122.68069, 7.1861e-003
 498.35100,122.84195, 7.1955e-003
 498.85100,123.00340, 7.2046e-003
 499.35100,123.16499, 7.2166e-003
 499.85100,123.32668, 7.2262e-003
 500.35100,123.48817, 7.2381e-003
 500.85100,123.64944, 7.2481e-003
 501.35100,123.81102, 7.2587e-003
 501.85100,123.97300, 7.2681e-003
 502.35100,124.13519, 7.2768e-003
 502.85100,124.29769, 7.2865e-003
 503.35100,124.45992, 7.2960e-003
 503.85100,124.62156, 7.3049e-003
 504.35100,124.78292, 7.3146e-003
 504.85100,124.94457, 7.3241e-003
 505.35100,125.10637, 7.3337e-003
 505.85100,125.26825, 7.3433e-003
 506.35100,125.43024, 7.3543e-003
 506.85100,125.59192, 7.3643e-003
 507.35100,125.75334, 7.3754e-003
 507.85100,125.91520, 7.3867e-003
 508.35100,126.07770, 7.3961e-003
 508.85100,126.24007, 7.4054e-003
 509.35100,126.40208, 7.4148e-003
 509.85100,126.56445, 7.4243e-003
 510.35100,126.72689, 7.4340e-003
 510.85100,126.89011, 7.4437e-003
 511.35100,127.05365, 7.4532e-003
 511.85100,127.21724, 7.4624e-003
 512.35100,127.38072, 7.4719e-003
 512.85100,127.54358, 7.4816e-003
 513.35100,127.70630, 7.4909e-003
 513.85100,127.86940, 7.5009e-003
 514.35100,128.03337, 7.5106e-003
 514.85100,128.19717, 7.5198e-003
 515.35100,128.36110, 7.5300e-003
 515.85100,128.52566, 7.5435e-003
 516.35100,128.68957, 7.5533e-003
 516.85100,128.85298, 7.5631e-003
 517.35100,129.01673, 7.5718e-003
 517.85100,129.17999, 7.5818e-003
 518.35100,129.34362, 7.5914e-003
 518.85100,129.50747, 7.6001e-003
 519.35100,129.67137, 7.6096e-003
 519.85100,129.83563, 7.6210e-003
 520.35100,129.99926, 7.6316e-003
 520.85100,130.16267, 7.6416e-003
 521.35100,130.32635, 7.6509e-003
 521.85100,130.49004, 7.6600e-003
 522.35100,130.65335, 7.6693e-003
 522.85100,130.81689, 7.6803e-003
 523.35100,130.98054, 7.6895e-003
 523.85100,131.14369, 7.6990e-003
 524.35100,131.30753, 7.7081e-003
 524.85100,131.47176, 7.7174e-003
 525.35100,131.63577, 7.7265e-003
 525.85100,131.80048, 7.7359e-003
 526.35100,131.96524, 7.7453e-003
 526.85100,132.12985, 7.7541e-003
 527.35100,132.29487, 7.7647e-003
 527.85100,132.45963, 7.7745e-003
 528.35100,132.62435, 7.7840e-003
 528.85100,132.78962, 7.7939e-003
 529.35100,132.95491, 7.8032e-003
 529.85100,133.12018, 7.8128e-003
 530.35100,133.28575, 7.8229e-003
 530.85100,133.45088, 7.8339e-003
 531.35100,133.61604, 7.8450e-003
 531.85100,133.78159, 7.8557e-003
 532.35100,133.94716, 7.8656e-003
 532.85100,134.11276, 7.8751e-003
 533.35100,134.27826, 7.8852e-003
 533.85100,134.44374, 7.8948e-003
 534.35100,134.60931, 7.9051e-003
 534.85100,134.77449, 7.9146e-003
 535.35100,134.94002, 7.9300e-003
 535.85100,135.10557, 7.9488e-003
 536.35100,135.27077, 7.9647e-003
 536.85100,135.43579, 7.9748e-003
 537.35100,135.60118, 7.9856e-003
 537.85100,135.76666, 7.9955e-003
 538.35100,135.93265, 8.0060e-003
 538.85100,136.09921, 8.0149e-003
 539.35100,136.26571, 8.0249e-003
 539.85100,136.43235, 8.0343e-003
 540.35100,136.59878, 8.0446e-003
 540.85100,136.76518, 8.0551e-003
 541.35100,136.93176, 8.0651e-003
 541.85100,137.09879, 8.0747e-003
 542.35100,137.26559, 8.0849e-003
 542.85100,137.43280, 8.0946e-003
 543.35100,137.60052, 8.1048e-003
 543.85100,137.76803, 8.1146e-003
 544.35100,137.93505, 8.1255e-003
 544.85100,138.10307, 8.1350e-003
 545.35100,138.27037, 8.1450e-003
 545.85100,138.43784, 8.1545e-003
 546.35100,138.60554, 8.1637e-003
 546.85100,138.77345, 8.1728e-003
 547.35100,138.94058, 8.1835e-003
 547.85100,139.10792, 8.1924e-003
 548.35100,139.27516, 8.2033e-003
 548.85100,139.44231, 8.2120e-003
 549.35100,139.60940, 8.2218e-003
 549.85100,139.77641, 8.2324e-003
 550.35100,139.94323, 8.2422e-003
 550.85100,140.10958, 8.2520e-003
 551.35100,140.27673, 8.2609e-003
 551.85100,140.44420, 8.2725e-003
 552.35100,140.61182, 8.2831e-003
 552.85100,140.78063, 8.2933e-003
 553.35100,140.94942, 8.3044e-003
 553.85100,141.11799, 8.3143e-003
 554.35100,141.28664, 8.3249e-003
 554.85100,141.45534, 8.3348e-003
 555.35100,141.62372, 8.3461e-003
 555.85100,141.79243, 8.3575e-003
 556.35100,141.96144, 8.3678e-003
 556.85100,142.13100, 8.3774e-003
 557.35100,142.30098, 8.3880e-003
 557.85100,142.47143, 8.3986e-003
 558.35100,142.64255, 8.4097e-003
 558.85100,142.81401, 8.4209e-003
 559.35100,142.98622, 8.4318e-003
 559.85100,143.15950, 8.4421e-003
 560.35100,143.33319, 8.4523e-003
 560.85100,143.50684, 8.4635e-003
 561.35100,143.68057, 8.4733e-003
 561.85100,143.85399, 8.4847e-003
 562.35100,144.02711, 8.4943e-003
 562.85100,144.20003, 8.5053e-003
 563.35100,144.37242, 8.5149e-003
 563.85100,144.54434, 8.5251e-003
 564.35100,144.71561, 8.5344e-003
 564.85100,144.88622, 8.5440e-003
 565.35100,145.05528, 8.5531e-003
 565.85100,145.22306, 8.5636e-003
 566.35100,145.38973, 8.5747e-003
 566.85100,145.55560, 8.5840e-003
 567.35100,145.72115, 8.5930e-003
 567.85100,145.88671, 8.6025e-003
 568.35100,146.05168, 8.6111e-003
 568.85100,146.21627, 8.6211e-003
 569.35100,146.38016, 8.6301e-003
 569.85100,146.54385, 8.6406e-003
 570.35100,146.70751, 8.6498e-003
 570.85100,146.87105, 8.6590e-003
 571.35100,147.03496, 8.6694e-003
 571.85100,147.19878, 8.6781e-003
 572.35100,147.36236, 8.6884e-003
 572.85100,147.52579, 8.6987e-003
 573.35100,147.68910, 8.7089e-003
 573.85100,147.85280, 8.7181e-003
 574.35100,148.01694, 8.7278e-003
 574.85100,148.18217, 8.7384e-003
 575.35100,148.34809, 8.7476e-003
 575.85100,148.51448, 8.7589e-003
 576.35100,148.68110, 8.7681e-003
 576.85100,148.84777, 8.7778e-003
 577.35100,149.01441, 8.7881e-003
 577.85100,149.18117, 8.7967e-003
 578.35100,149.34810, 8.8066e-003
 578.85100,149.51515, 8.8161e-003
 579.35100,149.68238, 8.8253e-003
 579.85100,149.85006, 8.8355e-003
 580.35100,150.01796, 8.8451e-003
 580.85100,150.18612, 8.8555e-003
 581.35100,150.35454, 8.8658e-003
 581.85100,150.52320, 8.8755e-003
 582.35100,150.69203, 8.8865e-003
 582.85100,150.86126, 8.8965e-003
 583.35100,151.03077, 8.9062e-003
 583.85100,151.20052, 8.9164e-003
 584.35100,151.37077, 8.9268e-003
 584.85100,151.54099, 8.9361e-003
 585.35100,151.71158, 8.9456e-003
 585.85100,151.88217, 8.9551e-003
 586.35100,152.05297, 8.9647e-003
 586.85100,152.22406, 8.9751e-003
 587.35100,152.39580, 8.9847e-003
 587.85100,152.56777, 8.9938e-003
 588.35100,152.73960, 9.0036e-003
 588.85100,152.91109, 9.0144e-003
 589.35100,153.08243, 9.0239e-003
 589.85100,153.25402, 9.0345e-003
 590.35100,153.42581, 9.0444e-003
 590.85100,153.59842, 9.0550e-003
 591.35100,153.77131, 9.0644e-003
 591.85100,153.94422, 9.0752e-003
 592.35100,154.11736, 9.0851e-003
 592.85100,154.29045, 9.0950e-003
 593.35100,154.46333, 9.1064e-003
 593.85100,154.63703, 9.1165e-003
 594.35100,154.81076, 9.1268e-003
 594.85100,154.98445, 9.1373e-003
 595.35100,155.15801, 9.1462e-003
 595.85100,155.33140, 9.1569e-003
 596.35100,155.50446, 9.1670e-003
 596.85100,155.67779, 9.1763e-003
 597.35100,155.85116, 9.1868e-003
 597.85100,156.02417, 9.1970e-003
 598.35100,156.19739, 9.2072e-003
 598.85100,156.37084, 9.2165e-003
 599.35100,156.54448, 9.2271e-003
 599.85100,156.71856, 9.2372e-003
 600.35100,156.89286, 9.2472e-003
 600.85100,157.06696, 9.2578e-003
 601.35100,157.24107, 9.2681e-003
 601.85100,157.41543, 9.2792e-003
 602.35100,157.58973, 9.2902e-003
 602.85100,157.76515, 9.3001e-003
 603.35100,157.94129, 9.3109e-003
 603.85100,158.11791, 9.3193e-003
 604.35100,158.29489, 9.3299e-003
 604.85100,158.47172, 9.3389e-003
 605.35100,158.64835, 9.3487e-003
 605.85100,158.82449, 9.3579e-003
 606.35100,159.00030, 9.3691e-003
 606.85100,159.17588, 9.3791e-003
 607.35100,159.35105, 9.3886e-003
 607.85100,159.52631, 9.3978e-003
 608.35100,159.70183, 9.4083e-003
 608.85100,159.87745, 9.4173e-003
 609.35100,160.05348, 9.4278e-003
 609.85100,160.22928, 9.4388e-003
 610.35100,160.40493, 9.4477e-003
 610.85100,160.58068, 9.4583e-003
 611.35100,160.75664, 9.4679e-003
 611.85100,160.93309, 9.4782e-003
 612.35100,161.10985, 9.4884e-003
 612.85100,161.28671, 9.4992e-003
 613.35100,161.46315, 9.5096e-003
 613.85100,161.63945, 9.5201e-003
 614.35100,161.81627, 9.5312e-003
 614.85100,161.99332, 9.5415e-003
 615.35100,162.17072, 9.5527e-003
 615.85100,162.34823, 9.5626e-003
 616.35100,162.52493, 9.5732e-003
 616.85100,162.70128, 9.5834e-003
 617.35100,162.87726, 9.5932e-003
 617.85100,163.05292, 9.6030e-003
 618.35100,163.22882, 9.6143e-003
 618.85100,163.40473, 9.6295e-003
 619.35100,163.58215, 9.6396e-003
 619.85100,163.75974, 9.6493e-003
 620.35100,163.93707, 9.6599e-003
 620.85100,164.11470, 9.6711e-003
 621.35100,164.29116, 9.6806e-003
 621.85100,164.46797, 9.6912e-003
 622.35100,164.64546, 9.7020e-003
 622.85100,164.82298, 9.7122e-003
 623.35100,165.00066, 9.7220e-003
 623.85100,165.17816, 9.7338e-003
 624.35100,165.35544, 9.7451e-003
 624.85100,165.53273, 9.7554e-003
 625.35100,165.71027, 9.7649e-003
 625.85100,165.88776, 9.7753e-003
 626.35100,166.06524, 9.7852e-003
 626.85100,166.24256, 9.7953e-003
 627.35100,166.41974, 9.8058e-003
 627.85100,166.59730, 9.8153e-003
 628.35100,166.77499, 9.8251e-003
 628.85100,166.95273, 9.8357e-003
 629.35100,167.13033, 9.8467e-003
 629.85100,167.30788, 9.8593e-003
 630.35100,167.48518, 9.8697e-003
 630.85100,167.66220, 9.8800e-003
 631.35100,167.83929, 9.8901e-003
 631.85100,168.01668, 9.9002e-003
 632.35100,168.19433, 9.9096e-003
 632.85100,168.37312, 9.9200e-003
 633.35100,168.55199, 9.9308e-003
 633.85100,168.73064, 9.9410e-003
 634.35100,168.90937, 9.9500e-003
 634.85100,169.08763, 9.9599e-003
 635.35100,169.26588, 9.9690e-003
 635.85100,169.44386, 9.9797e-003
 636.35100,169.62191, 9.9895e-003
 636.85100,169.79996, 9.9991e-003
 637.35100,169.97826, 1.0009e-002
 637.85100,170.15702, 1.0019e-002
 638.35100,170.33586, 1.0029e-002
 638.85100,170.51476, 1.0039e-002
 639.35100,170.69367, 1.0049e-002
 639.85100,170.87275, 1.0060e-002
 640.35100,171.05186, 1.0069e-002
 640.85100,171.23134, 1.0079e-002
 641.35100,171.41093, 1.0089e-002
 641.85100,171.59046, 1.0099e-002
 642.35100,171.76992, 1.0111e-002
 642.85100,171.94917, 1.0121e-002
 643.35100,172.12842, 1.0130e-002
 643.85100,172.30746, 1.0140e-002
 644.35100,172.48660, 1.0149e-002
 644.85100,172.66591, 1.0159e-002
 645.35100,172.84531, 1.0169e-002
 645.85100,173.02488, 1.0179e-002
 646.35100,173.20473, 1.0189e-002
 646.85100,173.38462, 1.0199e-002
 647.35100,173.56500, 1.0209e-002
 647.85100,173.74541, 1.0219e-002
 648.35100,173.92656, 1.0229e-002
 648.85100,174.10800, 1.0239e-002
 649.35100,174.28972, 1.0249e-002
 649.85100,174.47240, 1.0260e-002
 650.35100,174.65578, 1.0270e-002
 650.85100,174.83983, 1.0282e-002
 651.35100,175.02446, 1.0292e-002
 651.85100,175.20990, 1.0303e-002
 652.35100,175.39546, 1.0313e-002
 652.85100,175.58178, 1.0323e-002
 653.35100,175.76786, 1.0334e-002
 653.85100,175.95344, 1.0344e-002
 654.35100,176.13828, 1.0354e-002
 654.85100,176.32242, 1.0364e-002
 655.35100,176.50584, 1.0375e-002
 655.85100,176.68848, 1.0384e-002
 656.35100,176.87026, 1.0394e-002
 656.85100,177.05092, 1.0403e-002
 657.35100,177.23048, 1.0413e-002
 657.85100,177.40866, 1.0422e-002
 658.35100,177.58602, 1.0432e-002
 658.85100,177.76294, 1.0441e-002
 659.35100,177.93946, 1.0450e-002
 659.85100,178.11561, 1.0459e-002
 660.35100,178.29113, 1.0470e-002
 660.85100,178.46624, 1.0480e-002
 661.35100,178.64132, 1.0489e-002
 661.85100,178.81626, 1.0498e-002
 662.35100,178.99165, 1.0508e-002
 662.85100,179.16731, 1.0518e-002
 663.35100,179.34306, 1.0528e-002
 663.85100,179.51896, 1.0538e-002
 664.35100,179.69532, 1.0548e-002
 664.85100,179.87193, 1.0559e-002
 665.35100,180.04889, 1.0569e-002
 665.85100,180.22646, 1.0580e-002
 666.35100,180.40449, 1.0591e-002
 666.85100,180.58275, 1.0600e-002
 667.35100,180.76123, 1.0610e-002
 667.85100,180.93967, 1.0620e-002
 668.35100,181.11816, 1.0631e-002
 668.85100,181.29701, 1.0642e-002
 669.35100,181.47630, 1.0652e-002
 669.85100,181.65569, 1.0663e-002
 670.35100,181.83431, 1.0672e-002
 670.85100,182.01268, 1.0682e-002
 671.35100,182.19104, 1.0693e-002
 671.85100,182.37029, 1.0702e-002
 672.35100,182.55079, 1.0712e-002
 672.85100,182.73183, 1.0721e-002
 673.35100,182.91331, 1.0733e-002
 673.85100,183.09484, 1.0742e-002
 674.35100,183.27664, 1.0751e-002
 674.85100,183.45871, 1.0761e-002
 675.35100,183.64033, 1.0772e-002
 675.85100,183.82198, 1.0782e-002
 676.35100,184.00437, 1.0792e-002
 676.85100,184.18698, 1.0802e-002
 677.35100,184.36992, 1.0812e-002
 677.85100,184.55260, 1.0822e-002
 678.35100,184.73481, 1.0832e-002
 678.85100,184.91748, 1.0843e-002
 679.35100,185.10086, 1.0853e-002
 679.85100,185.28492, 1.0863e-002
 680.35100,185.46934, 1.0873e-002
 680.85100,185.65345, 1.0883e-002
 681.35100,185.83763, 1.0894e-002
 681.85100,186.02162, 1.0904e-002
 682.35100,186.20530, 1.0913e-002
 682.85100,186.38929, 1.0923e-002
 683.35100,186.57340, 1.0933e-002
 683.85100,186.75787, 1.0944e-002
 684.35100,186.94272, 1.0955e-002
 684.85100,187.12755, 1.0965e-002
 685.35100,187.31286, 1.0975e-002
 685.85100,187.49810, 1.0986e-002
 686.35100,187.68357, 1.0995e-002
 686.85100,187.86892, 1.1005e-002
 687.35100,188.05429, 1.1015e-002
 687.85100,188.23937, 1.1025e-002
 688.35100,188.42459, 1.1034e-002
 688.85100,188.61020, 1.1044e-002
 689.35100,188.79576, 1.1054e-002
 689.85100,188.98210, 1.1064e-002
 690.35100,189.16866, 1.1074e-002
 690.85100,189.35557, 1.1084e-002
 691.35100,189.54294, 1.1093e-002
 691.85100,189.73002, 1.1103e-002
 692.35100,189.91721, 1.1113e-002
 692.85100,190.10442, 1.1124e-002
 693.35100,190.29114, 1.1134e-002
 693.85100,190.47815, 1.1144e-002
 694.35100,190.66578, 1.1153e-002
 694.85100,190.85401, 1.1164e-002
 695.35100,191.04283, 1.1174e-002
 695.85100,191.23154, 1.1185e-002
 696.35100,191.41994, 1.1195e-002
 696.85100,191.60863, 1.1204e-002
 697.35100,191.79791, 1.1215e-002
 697.85100,191.98752, 1.1226e-002
 698.35100,192.17736, 1.1235e-002
 698.85100,192.36700, 1.1245e-002
 699.35100,192.55672, 1.1256e-002
 699.85100,192.74681, 1.1267e-002
 700.35100,192.93765, 1.1278e-002
 700.85100,193.12870, 1.1288e-002
 701.35100,193.32003, 1.1298e-002
 701.85100,193.51114, 1.1308e-002
 702.35100,193.70201, 1.1320e-002
 702.85100,193.89307, 1.1330e-002
 703.35100,194.08423, 1.1340e-002
 703.85100,194.27510, 1.1352e-002
 704.35100,194.46605, 1.1363e-002
 704.85100,194.65649, 1.1374e-002
 705.35100,194.84689, 1.1386e-002
 705.85100,195.03723, 1.1397e-002
 706.35100,195.22738, 1.1408e-002
 706.85100,195.41817, 1.1418e-002
 707.35100,195.60937, 1.1429e-002
 707.85100,195.80102, 1.1440e-002
 708.35100,195.99289, 1.1451e-002
 708.85100,196.18458, 1.1460e-002
 709.35100,196.37649, 1.1470e-002
 709.85100,196.56814, 1.1482e-002
 710.35100,196.75973, 1.1492e-002
 710.85100,196.95129, 1.1502e-002
 711.35100,197.14235, 1.1513e-002
 711.85100,197.33384, 1.1524e-002
 712.35100,197.52506, 1.1534e-002
 712.85100,197.71628, 1.1544e-002
 713.35100,197.90765, 1.1555e-002
 713.85100,198.09932, 1.1566e-002
 714.35100,198.29122, 1.1576e-002
 714.85100,198.48317, 1.1586e-002
 715.35100,198.67494, 1.1597e-002
 715.85100,198.86604, 1.1609e-002
 716.35100,199.05690, 1.1621e-002
 716.85100,199.24749, 1.1632e-002
 717.35100,199.43834, 1.1642e-002
 717.85100,199.62901, 1.1652e-002
 718.35100,199.81955, 1.1663e-002
 718.85100,200.01015, 1.1674e-002
 719.35100,200.20093, 1.1684e-002
 719.85100,200.39176, 1.1695e-002
 720.35100,200.58277, 1.1706e-002
 720.85100,200.77402, 1.1716e-002
 721.35100,200.96572, 1.1727e-002
 721.85100,201.15750, 1.1737e-002
 722.35100,201.34947, 1.1749e-002
 722.85100,201.54136, 1.1761e-002
 723.35100,201.73353, 1.1770e-002
 723.85100,201.92645, 1.1782e-002
 724.35100,202.12043, 1.1794e-002
 724.85100,202.31508, 1.1805e-002
 725.35100,202.51031, 1.1816e-002
 725.85100,202.70632, 1.1829e-002
 726.35100,202.90312, 1.1839e-002
 726.85100,203.10099, 1.1851e-002
 727.35100,203.29960, 1.1863e-002
 727.85100,203.49857, 1.1873e-002
 728.35100,203.69700, 1.1886e-002
 728.85100,203.89486, 1.1896e-002
 729.35100,204.09168, 1.1907e-002
 729.85100,204.28751, 1.1918e-002
 730.35100,204.48259, 1.1928e-002
 730.85100,204.67699, 1.1940e-002
 731.35100,204.87023, 1.1949e-002
 731.85100,205.06263, 1.1960e-002
 732.35100,205.25460, 1.1969e-002
 732.85100,205.44546, 1.1980e-002
 733.35100,205.63509, 1.1991e-002
 733.85100,205.82250, 1.2002e-002
 734.35100,206.00881, 1.2012e-002
 734.85100,206.19435, 1.2022e-002
 735.35100,206.37979, 1.2033e-002
 735.85100,206.56534, 1.2044e-002
 736.35100,206.75036, 1.2054e-002
 736.85100,206.93562, 1.2064e-002
 737.35100,207.12123, 1.2075e-002
 737.85100,207.30738, 1.2085e-002
 738.35100,207.49371, 1.2097e-002
 738.85100,207.68004, 1.2107e-002
 739.35100,207.86665, 1.2118e-002
 739.85100,208.05313, 1.2129e-002
 740.35100,208.24051, 1.2141e-002
 740.85100,208.42811, 1.2152e-002
 741.35100,208.61592, 1.2163e-002
 741.85100,208.80416, 1.2174e-002
 742.35100,208.99212, 1.2185e-002
 742.85100,209.18002, 1.2195e-002
 743.35100,209.36806, 1.2206e-002
 743.85100,209.55589, 1.2216e-002
 744.35100,209.74405, 1.2226e-002
 744.85100,209.93225, 1.2239e-002
 745.35100,210.12072, 1.2251e-002
 745.85100,210.31011, 1.2262e-002
 746.35100,210.49951, 1.2273e-002
 746.85100,210.68935, 1.2285e-002
 747.35100,210.87921, 1.2296e-002
 747.85100,211.06894, 1.2306e-002
 748.35100,211.25962, 1.2316e-002
 748.85100,211.45050, 1.2325e-002
 749.35100,211.64096, 1.2337e-002
 749.85100,211.83140, 1.2348e-002
 750.35100,212.02138, 1.2358e-002
 750.85100,212.21130, 1.2369e-002
 751.35100,212.40256, 1.2380e-002
 751.85100,212.59344, 1.2392e-002
 752.35100,212.78454, 1.2403e-002
 752.85100,212.97563, 1.2415e-002
 753.35100,213.16630, 1.2426e-002
 753.85100,213.35676, 1.2436e-002
 754.35100,213.54737, 1.2449e-002
 754.85100,213.73804, 1.2459e-002
 755.35100,213.92868, 1.2471e-002
 755.85100,214.11962, 1.2481e-002
 756.35100,214.31036, 1.2493e-002
 756.85100,214.50130, 1.2503e-002
 757.35100,214.69305, 1.2514e-002
 757.85100,214.88455, 1.2524e-002
 758.35100,215.07656, 1.2535e-002
 758.85100,215.26888, 1.2544e-002
 759.35100,215.46115, 1.2555e-002
 759.85100,215.65370, 1.2566e-002
 760.35100,215.84557, 1.2576e-002
 760.85100,216.03748, 1.2586e-002
 761.35100,216.22863, 1.2598e-002
 761.85100,216.42013, 1.2608e-002
 762.35100,216.61134, 1.2618e-002
 762.85100,216.80261, 1.2629e-002
 763.35100,216.99427, 1.2639e-002
 763.85100,217.18680, 1.2649e-002
 764.35100,217.37973, 1.2660e-002
 764.85100,217.57272, 1.2672e-002
 765.35100,217.76582, 1.2684e-002
 765.85100,217.95793, 1.2694e-002
 766.35100,218.15004, 1.2705e-002
 766.85100,218.34269, 1.2716e-002
 767.35100,218.53541, 1.2727e-002
 767.85100,218.72844, 1.2737e-002
 768.35100,218.92170, 1.2748e-002
 768.85100,219.11499, 1.2758e-002
 769.35100,219.30822, 1.2770e-002
 769.85100,219.50145, 1.2780e-002
 770.35100,219.69450, 1.2791e-002
 770.85100,219.88718, 1.2802e-002
 771.35100,220.08011, 1.2813e-002
 771.85100,220.27390, 1.2826e-002
 772.35100,220.46691, 1.2837e-002
 772.85100,220.65996, 1.2848e-002
 773.35100,220.85186, 1.2859e-002
 773.85100,221.04337, 1.2871e-002
 774.35100,221.23580, 1.2882e-002
 774.85100,221.42814, 1.2893e-002
 775.35100,221.62033, 1.2904e-002
 775.85100,221.81278, 1.2914e-002
 776.35100,222.00527, 1.2925e-002
 776.85100,222.19776, 1.2935e-002
 777.35100,222.39093, 1.2946e-002
 777.85100,222.58382, 1.2957e-002
 778.35100,222.77737, 1.2968e-002
 778.85100,222.97084, 1.2978e-002
 779.35100,223.16378, 1.2989e-002
 779.85100,223.35652, 1.3000e-002
 780.35100,223.54905, 1.3010e-002
 780.85100,223.74146, 1.3021e-002
 781.35100,223.93413, 1.3030e-002
 781.85100,224.12695, 1.3041e-002
 782.35100,224.31996, 1.3052e-002
 782.85100,224.51361, 1.3063e-002
 783.35100,224.70753, 1.3073e-002
 783.85100,224.90191, 1.3084e-002
 784.35100,225.09620, 1.3094e-002
 784.85100,225.29056, 1.3105e-002
 785.35100,225.48507, 1.3115e-002
 785.85100,225.67942, 1.3126e-002
 786.35100,225.87397, 1.3138e-002
 786.85100,226.06861, 1.3148e-002
 787.35100,226.26325, 1.3160e-002
 787.85100,226.45841, 1.3171e-002
 788.35100,226.65419, 1.3182e-002
 788.85100,226.85068, 1.3194e-002
 789.35100,227.04772, 1.3204e-002
 789.85100,227.24512, 1.3216e-002
 790.35100,227.44334, 1.3228e-002
 790.85100,227.64327, 1.3241e-002
 791.35100,227.84642, 1.3252e-002
 791.85100,228.05301, 1.3263e-002
 792.35100,228.26344, 1.3276e-002
 792.85100,228.47641, 1.3288e-002
 793.35100,228.69123, 1.3300e-002
 793.85100,228.90714, 1.3312e-002
 794.35100,229.12393, 1.3323e-002
 794.85100,229.34048, 1.3334e-002
 795.35100,229.55608, 1.3346e-002
 795.85100,229.77038, 1.3356e-002
 796.35100,229.98384, 1.3368e-002
 796.85100,230.19741, 1.3378e-002
 797.35100,230.41011, 1.3389e-002
 797.85100,230.62213, 1.3401e-002
 798.35100,230.83226, 1.3411e-002
 798.85100,231.04122, 1.3421e-002
 799.35100,231.25036, 1.3432e-002
 799.85100,231.46127, 1.3443e-002
 800.35100,231.67430, 1.3453e-002
 800.85100,231.89009, 1.3465e-002
 801.35100,232.10590, 1.3477e-002
 801.85100,232.32076, 1.3488e-002
 802.35100,232.53301, 1.3499e-002
 802.85100,232.74290, 1.3510e-002
 803.35100,232.95012, 1.3521e-002
 803.85100,233.15490, 1.3530e-002
 804.35100,233.35811, 1.3540e-002
 804.85100,233.56066, 1.3552e-002
 805.35100,233.76385, 1.3562e-002
 805.85100,233.96833, 1.3576e-002
 806.35100,234.17503, 1.3587e-002
 806.85100,234.38469, 1.3599e-002
 807.35100,234.59588, 1.3610e-002
 807.85100,234.80935, 1.3620e-002
 808.35100,235.02421, 1.3631e-002
 808.85100,235.23951, 1.3642e-002
 809.35100,235.45553, 1.3652e-002
 809.85100,235.67073, 1.3663e-002
 810.35100,235.88526, 1.3675e-002
 810.85100,236.09779, 1.3685e-002
 811.35100,236.30921, 1.3695e-002
 811.85100,236.51960, 1.3705e-002
 812.35100,236.72919, 1.3716e-002
 812.85100,236.93801, 1.3726e-002
 813.35100,237.14791, 1.3736e-002
 813.85100,237.35824, 1.3747e-002
 814.35100,237.56993, 1.3759e-002
 814.85100,237.78250, 1.3769e-002
 815.35100,237.99425, 1.3781e-002
 815.85100,238.20523, 1.3791e-002
 816.35100,238.41364, 1.3802e-002
 816.85100,238.61855, 1.3812e-002
 817.35100,238.82212, 1.3821e-002
 817.85100,239.02326, 1.3830e-002
 818.35100,239.22287, 1.3840e-002
 818.85100,239.42178, 1.3850e-002
 819.35100,239.62032, 1.3860e-002
 819.85100,239.81883, 1.3869e-002
 820.35100,240.01828, 1.3879e-002
 820.85100,240.21746, 1.3890e-002
 821.35100,240.41731, 1.3903e-002
 821.85100,240.61819, 1.3914e-002
 822.35100,240.81971, 1.3924e-002
 822.85100,241.02113, 1.3935e-002
 823.35100,241.22233, 1.3946e-002
 823.85100,241.42335, 1.3956e-002
 824.35100,241.62440, 1.3968e-002
 824.85100,241.82557, 1.3978e-002
 825.35100,242.02691, 1.3988e-002
 825.85100,242.22818, 1.3999e-002
 826.35100,242.42964, 1.4009e-002
 826.85100,242.63114, 1.4019e-002
 827.35100,242.83251, 1.4030e-002
 827.85100,243.03354, 1.4042e-002
 828.35100,243.23484, 1.4053e-002
 828.85100,243.43557, 1.4062e-002
 829.35100,243.63622, 1.4073e-002
 829.85100,243.83641, 1.4085e-002
 830.35100,244.03598, 1.4095e-002
 830.85100,244.23497, 1.4106e-002
 831.35100,244.43299, 1.4117e-002
 831.85100,244.62983, 1.4126e-002
 832.35100,244.82602, 1.4136e-002
 832.85100,245.02188, 1.4147e-002
 833.35100,245.21817, 1.4157e-002
 833.85100,245.41495, 1.4167e-002
 834.35100,245.61202, 1.4178e-002
 834.85100,245.80952, 1.4189e-002
 835.35100,246.00673, 1.4201e-002
 835.85100,246.20390, 1.4212e-002
 836.35100,246.40072, 1.4223e-002
 836.85100,246.59666, 1.4234e-002
 837.35100,246.79247, 1.4245e-002
 837.85100,246.98741, 1.4253e-002
 838.35100,247.18215, 1.4264e-002
 838.85100,247.37660, 1.4276e-002
 839.35100,247.57031, 1.4287e-002
 839.85100,247.76458, 1.4298e-002
 840.35100,247.95918, 1.4308e-002
 840.85100,248.15391, 1.4319e-002
 841.35100,248.34864, 1.4330e-002
 841.85100,248.54205, 1.4340e-002
 842.35100,248.73493, 1.4349e-002
 842.85100,248.92720, 1.4360e-002
 843.35100,249.11958, 1.4371e-002
 843.85100,249.31158, 1.4382e-002
 844.35100,249.50348, 1.4393e-002
 844.85100,249.69597, 1.4404e-002
 845.35100,249.88860, 1.4414e-002
 845.85100,250.08155, 1.4422e-002
 846.35100,250.27513, 1.4433e-002
 846.85100,250.46881, 1.4444e-002
 847.35100,250.66347, 1.4456e-002
 847.85100,250.85986, 1.4468e-002
 848.35100,251.05650, 1.4477e-002
 848.85100,251.25339, 1.4487e-002
 849.35100,251.45054, 1.4499e-002
 849.85100,251.64842, 1.4511e-002
 850.35100,251.84641, 1.4523e-002
 850.85100,252.04485, 1.4533e-002
 851.35100,252.24271, 1.4546e-002
 851.85100,252.44040, 1.4557e-002
 852.35100,252.63823, 1.4568e-002
 852.85100,252.83611, 1.4580e-002
 853.35100,253.03326, 1.4593e-002
 853.85100,253.22980, 1.4602e-002
 854.35100,253.42589, 1.4613e-002
 854.85100,253.62112, 1.4625e-002
 855.35100,253.81581, 1.4636e-002
 855.85100,254.00932, 1.4648e-002
 856.35100,254.20163, 1.4657e-002
 856.85100,254.39263, 1.4667e-002
 857.35100,254.58317, 1.4678e-002
 857.85100,254.77234, 1.4689e-002
 858.35100,254.96066, 1.4700e-002
 858.85100,255.14845, 1.4712e-002
 859.35100,255.33589, 1.4723e-002
 859.85100,255.52330, 1.4732e-002
 860.35100,255.71147, 1.4743e-002
 860.85100,255.89991, 1.4754e-002
 861.35100,256.08806, 1.4767e-002
 861.85100,256.27622, 1.4775e-002
 862.35100,256.46409, 1.4788e-002
 862.85100,256.65119, 1.4798e-002
 863.35100,256.83871, 1.4810e-002
 863.85100,257.02613, 1.4822e-002
 864.35100,257.21369, 1.4833e-002
 864.85100,257.40142, 1.4843e-002
 865.35100,257.58917, 1.4854e-002
 865.85100,257.77722, 1.4866e-002
 866.35100,257.96636, 1.4878e-002
 866.85100,258.15669, 1.4887e-002
 867.35100,258.34713, 1.4898e-002
 867.85100,258.53760, 1.4910e-002
 868.35100,258.72734, 1.4922e-002
 868.85100,258.91708, 1.4931e-002
 869.35100,259.10704, 1.4943e-002
 869.85100,259.29695, 1.4954e-002
 870.35100,259.48729, 1.4966e-002
 870.85100,259.67780, 1.4977e-002
 871.35100,259.86892, 1.4989e-002
 871.85100,260.06077, 1.5000e-002
 872.35100,260.25310, 1.5010e-002
 872.85100,260.44584, 1.5022e-002
 873.35100,260.63877, 1.5035e-002
 873.85100,260.83197, 1.5047e-002
 874.35100,261.02566, 1.5057e-002
 874.85100,261.21954, 1.5068e-002
 875.35100,261.41430, 1.5082e-002
 875.85100,261.60897, 1.5094e-002
 876.35100,261.80389, 1.5104e-002
 876.85100,261.99942, 1.5118e-002
 877.35100,262.19530, 1.5130e-002
 877.85100,262.39213, 1.5142e-002
 878.35100,262.58971, 1.5158e-002
 878.85100,262.78782, 1.5167e-002
 879.35100,262.98676, 1.5180e-002
 879.85100,263.18608, 1.5194e-002
 880.35100,263.38617, 1.5207e-002
 880.85100,263.58735, 1.5216e-002
 881.35100,263.79053, 1.5230e-002
 881.85100,263.99563, 1.5242e-002
 882.35100,264.20285, 1.5256e-002
 882.85100,264.41138, 1.5270e-002
 883.35100,264.62090, 1.5284e-002
 883.85100,264.82878, 1.5298e-002
 884.35100,265.03019, 1.5313e-002
 884.85100,265.22211, 1.5325e-002
 885.35100,265.40548, 1.5337e-002
 885.85100,265.58262, 1.5347e-002
 886.35100,265.75766, 1.5356e-002
 886.85100,265.93315, 1.5368e-002
 887.35100,266.11089, 1.5382e-002
 887.85100,266.29347, 1.5397e-002
 888.35100,266.48194, 1.5410e-002
 888.85100,266.67579, 1.5424e-002
 889.35100,266.87420, 1.5435e-002
 889.85100,267.07598, 1.5453e-002
 890.35100,267.27955, 1.5465e-002
 890.85100,267.48495, 1.5481e-002
 891.35100,267.69058, 1.5491e-002
 891.85100,267.89569, 1.5508e-002
 892.35100,268.09972, 1.5521e-002
 892.85100,268.30299, 1.5534e-002
 893.35100,268.50541, 1.5543e-002
 893.85100,268.70769, 1.5558e-002
 894.35100,268.90954, 1.5573e-002
 894.85100,269.11156, 1.5585e-002
 895.35100,269.31398, 1.5598e-002
 895.85100,269.51689, 1.5610e-002
 896.35100,269.72042, 1.5623e-002
 896.85100,269.92420, 1.5634e-002
 897.35100,270.12846, 1.5650e-002
 897.85100,270.33326, 1.5662e-002
 898.35100,270.53719, 1.5674e-002
 898.85100,270.74071, 1.5686e-002
 899.35100,270.94381, 1.5699e-002
 899.85100,271.14672, 1.5711e-002
 900.35100,271.35173, 1.5723e-002
 900.85100,271.56140, 1.5737e-002
 901.35100,271.77995, 1.5750e-002
 901.85100,272.00846, 1.5764e-002
 902.35100,272.24258, 1.5777e-002
 902.85100,272.47597, 1.5789e-002
 903.35100,272.70696, 1.5802e-002
 903.85100,272.93549, 1.5815e-002
 904.35100,273.16208, 1.5828e-002
 904.85100,273.38624, 1.5841e-002
 905.35100,273.60882, 1.5851e-002
 905.85100,273.82988, 1.5864e-002
 906.35100,274.04854, 1.5877e-002
 906.85100,274.26620, 1.5890e-002
 907.35100,274.48267, 1.5904e-002
 907.85100,274.69870, 1.5914e-002
 908.35100,274.91349, 1.5928e-002
 908.85100,275.12750, 1.5940e-002
 909.35100,275.34156, 1.5953e-002
 909.85100,275.55588, 1.5964e-002
 910.35100,275.77169, 1.5976e-002
 910.85100,275.98795, 1.5989e-002
 911.35100,276.20581, 1.6003e-002
 911.85100,276.42497, 1.6014e-002
 912.35100,276.64753, 1.6026e-002
 912.85100,276.87318, 1.6038e-002
 913.35100,277.10372, 1.6053e-002
 913.85100,277.33729, 1.6065e-002
 914.35100,277.57319, 1.6080e-002
 914.85100,277.80972, 1.6089e-002
 915.35100,278.04585, 1.6103e-002
 915.85100,278.28504, 1.6118e-002
 916.35100,278.53263, 1.6133e-002
 916.85100,278.79115, 1.6147e-002
 917.35100,279.06145, 1.6161e-002
 917.85100,279.33825, 1.6177e-002
 918.35100,279.61204, 1.6187e-002
 918.85100,279.87213, 1.6203e-002
 919.35100,280.11739, 1.6210e-002
 919.85100,280.34773, 1.6222e-002
 920.35100,280.56650, 1.6231e-002
 920.85100,280.77638, 1.6243e-002
 921.35100,280.98186, 1.6256e-002
 921.85100,281.18544, 1.6268e-002
 922.35100,281.38636, 1.6276e-002
 922.85100,281.58564, 1.6289e-002
 923.35100,281.78197, 1.6300e-002
 923.85100,281.97670, 1.6314e-002
 924.35100,282.17003, 1.6326e-002
 924.85100,282.36134, 1.6335e-002
 925.35100,282.55105, 1.6348e-002
 925.85100,282.73955, 1.6361e-002
 926.35100,282.92892, 1.6370e-002
 926.85100,283.11905, 1.6384e-002
 927.35100,283.31079, 1.6397e-002
 927.85100,283.50364, 1.6408e-002
 928.35100,283.69843, 1.6422e-002
 928.85100,283.89580, 1.6434e-002
 929.35100,284.09612, 1.6446e-002
 929.85100,284.29785, 1.6459e-002
 930.35100,284.49881, 1.6472e-002
 930.85100,284.69669, 1.6486e-002
 931.35100,284.89046, 1.6496e-002
 931.85100,285.08218, 1.6508e-002
 932.35100,285.27291, 1.6522e-002
 932.85100,285.46522, 1.6533e-002
 933.35100,285.66010, 1.6546e-002
 933.85100,285.85730, 1.6561e-002
 934.35100,286.05690, 1.6577e-002
 934.85100,286.25723, 1.6590e-002
 935.35100,286.45814, 1.6602e-002
 935.85100,286.65844, 1.6617e-002
 936.35100,286.85765, 1.6630e-002
 936.85100,287.05406, 1.6641e-002
 937.35100,287.24751, 1.6655e-002
 937.85100,287.43826, 1.6668e-002
 938.35100,287.62682, 1.6683e-002
 938.85100,287.81342, 1.6692e-002
 939.35100,288.00060, 1.6708e-002
 939.85100,288.18703, 1.6721e-002
 940.35100,288.37410, 1.6734e-002
 940.85100,288.56238, 1.6749e-002
 941.35100,288.75086, 1.6764e-002
 941.85100,288.94011, 1.6777e-002
 942.35100,289.12950, 1.6789e-002
 942.85100,289.31961, 1.6803e-002
 943.35100,289.51027, 1.6818e-002
 943.85100,289.70246, 1.6833e-002
 944.35100,289.89727, 1.6846e-002
 944.85100,290.09384, 1.6861e-002
 945.35100,290.29234, 1.6874e-002
 945.85100,290.49068, 1.6887e-002
 946.35100,290.68539, 1.6900e-002
 946.85100,290.87813, 1.6915e-002
 947.35100,291.06804, 1.6927e-002
 947.85100,291.25833, 1.6940e-002
 948.35100,291.44858, 1.6954e-002
 948.85100,291.63779, 1.6968e-002
 949.35100,291.82644, 1.6979e-002
 949.85100,292.01456, 1.6993e-002
 950.35100,292.20270, 1.7008e-002
 950.85100,292.39212, 1.7026e-002
 951.35100,292.58147, 1.7037e-002
 951.85100,292.77061, 1.7055e-002
 952.35100,292.95957, 1.7066e-002
 952.85100,293.14810, 1.7081e-002
 953.35100,293.33733, 1.7098e-002
 953.85100,293.52632, 1.7111e-002
 954.35100,293.71536, 1.7128e-002
 954.85100,293.90451, 1.7142e-002
 955.35100,294.09408, 1.7155e-002
 955.85100,294.28388, 1.7171e-002
 956.35100,294.47312, 1.7186e-002
 956.85100,294.66214, 1.7201e-002
 957.35100,294.85018, 1.7217e-002
 957.85100,295.03791, 1.7230e-002
 958.35100,295.22498, 1.7244e-002
 958.85100,295.41101, 1.7259e-002
 959.35100,295.59677, 1.7274e-002
 959.85100,295.78196, 1.7288e-002
 960.35100,295.96709, 1.7301e-002
 960.85100,296.15306, 1.7318e-002
 961.35100,296.33888, 1.7333e-002
 961.85100,296.52513, 1.7346e-002
 962.35100,296.71207, 1.7362e-002
 962.85100,296.89893, 1.7379e-002
 963.35100,297.08585, 1.7393e-002
 963.85100,297.27170, 1.7410e-002
 964.35100,297.45509, 1.7424e-002
 964.85100,297.63643, 1.7438e-002
 965.35100,297.81659, 1.7454e-002
 965.85100,297.99667, 1.7469e-002
 966.35100,298.17811, 1.7481e-002
 966.85100,298.36140, 1.7496e-002
 967.35100,298.54625, 1.7512e-002
 967.85100,298.73286, 1.7529e-002
 968.35100,298.92122, 1.7543e-002
 968.85100,299.10954, 1.7561e-002
 969.35100,299.29656, 1.7576e-002
 969.85100,299.48051, 1.7591e-002
 970.35100,299.66118, 1.7604e-002
 970.85100,299.83841, 1.7619e-002
 971.35100,300.01403, 1.7638e-002
 971.85100,300.18896, 1.7649e-002
 972.35100,300.36377, 1.7665e-002
 972.85100,300.54042, 1.7682e-002
 973.35100,300.71939, 1.7697e-002
 973.85100,300.90042, 1.7712e-002
 974.35100,301.08359, 1.7731e-002
 974.85100,301.26818, 1.7749e-002
 975.35100,301.45429, 1.7765e-002
 975.85100,301.64205, 1.7782e-002
 976.35100,301.83100, 1.7804e-002
 976.85100,302.02040, 1.7821e-002
 977.35100,302.20795, 1.7840e-002
 977.85100,302.39234, 1.7859e-002
 978.35100,302.57222, 1.7874e-002
 978.85100,302.74729, 1.7889e-002
 979.35100,302.91887, 1.7905e-002
 979.85100,303.08885, 1.7922e-002
 980.35100,303.25984, 1.7939e-002
 980.85100,303.43403, 1.7958e-002
 981.35100,303.61231, 1.7977e-002
 981.85100,303.79481, 1.7994e-002
 982.35100,303.98038, 1.8013e-002
 982.85100,304.16767, 1.8034e-002
 983.35100,304.35711, 1.8052e-002
 983.85100,304.54686, 1.8071e-002
 984.35100,304.73510, 1.8093e-002
 984.85100,304.92078, 1.8112e-002
 985.35100,305.10328, 1.8134e-002
 985.85100,305.28537, 1.8153e-002
 986.35100,305.46931, 1.8172e-002
 986.85100,305.65606, 1.8195e-002
 987.35100,305.84370, 1.8220e-002
 987.85100,306.02819, 1.8240e-002
 988.35100,306.20851, 1.8260e-002
 988.85100,306.38618, 1.8285e-002
 989.35100,306.56219, 1.8305e-002
 989.85100,306.73939, 1.8325e-002
 990.35100,306.91794, 1.8345e-002
 990.85100,307.09707, 1.8366e-002
 991.35100,307.27773, 1.8391e-002
 991.85100,307.45962, 1.8409e-002
 992.35100,307.64271, 1.8435e-002
 992.85100,307.82635, 1.8453e-002
 993.35100,308.01106, 1.8473e-002
 993.85100,308.19619, 1.8495e-002
 994.35100,308.38223, 1.8523e-002
 994.85100,308.56869, 1.8544e-002
 995.35100,308.75294, 1.8566e-002
 995.85100,308.93542, 1.8586e-002
 996.35100,309.11553, 1.8605e-002
 996.85100,309.29535, 1.8630e-002
 997.35100,309.47630, 1.8652e-002
 997.85100,309.65759, 1.8675e-002
 998.35100,309.84089, 1.8699e-002
 998.85100,310.02433, 1.8727e-002
 999.35100,310.20865, 1.8749e-002
 999.85100,310.39518, 1.8776e-002
1000.35100,310.58262, 1.8803e-002
1000.85100,310.77280, 1.8828e-002
1001.35100,310.96531, 1.8853e-002
1001.85100,311.15974, 1.8879e-002
1002.35100,311.35488, 1.8905e-002
1002.85100,311.55059, 1.8931e-002
1003.35100,311.74616, 1.8953e-002
1003.85100,311.94062, 1.8979e-002
1004.35100,312.13393, 1.9011e-002
1004.85100,312.32622, 1.9035e-002
1005.35100,312.51749, 1.9058e-002
1005.85100,312.70827, 1.9083e-002
1006.35100,312.89835, 1.9107e-002
1006.85100,313.08669, 1.9136e-002
1007.35100,313.27417, 1.9157e-002
1007.85100,313.46062, 1.9183e-002
1008.35100,313.64556, 1.9209e-002
1008.85100,313.82993, 1.9230e-002
1009.35100,314.01330, 1.9255e-002
1009.85100,314.19564, 1.9279e-002
1010.35100,314.37753, 1.9304e-002
1010.85100,314.55846, 1.9325e-002
1011.35100,314.73903, 1.9351e-002
1011.85100,314.91992, 1.9372e-002
1012.35100,315.10102, 1.9398e-002
1012.85100,315.28306, 1.9420e-002
1013.35100,315.46545, 1.9443e-002
1013.85100,315.64806, 1.9469e-002
1014.35100,315.83115, 1.9494e-002
1014.85100,316.01466, 1.9519e-002
1015.35100,316.19893, 1.9542e-002
1015.85100,316.38447, 1.9565e-002
1016.35100,316.57108, 1.9593e-002
1016.85100,316.75768, 1.9617e-002
1017.35100,316.94447, 1.9641e-002
1017.85100,317.13085, 1.9665e-002
1018.35100,317.31696, 1.9689e-002
1018.85100,317.50332, 1.9716e-002
1019.35100,317.68891, 1.9740e-002
1019.85100,317.87683, 1.9766e-002

