#EXPORTTYPE:           ,DATA ALL                                
#FILE:                 ,sapph8mm08192019.ngb-cle                
#FORMAT:               ,NETZSCH5                                
#FTYPE:                ,ANSI                                    
#IDENTITY:             ,sapphire 8 mm                           
#DECIMAL:              ,POINT                                   
#SEPARATOR:            ,COMMA                                   
#MTYPE:                ,DIL                                     
#INSTRUMENT:           ,NETZSCH DIL 402C                        
#PROJECT:              ,feldspar                                
#DATE/TIME:            ,8/19/2019 9:42:37 AM (UTC-5)            
#CORR. FILE:           ,                                        
#TEMPCAL:              ,TCALZERO.TMX                            
#LABORATORY:           ,Mineral Physics                         
#OPERATOR:             ,PAG                                     
#REMARK:               ,bare, norm start, for short plageioclase
#SAMPLE:               ,stnd saph 8                             
#SAMPLE LENGTH /mm:    ,8.092                                   
#MATERIAL:             ,sapphire stnd                           
#MEASMODE:             ,Standard Expansion                      
#PURGE GAS 1:          ,ARGON                                   
#FLOW RATE 1 /(ml/min):,75                                      
#M.RANGE /µm:          ,500                                     
#CORR. CODE:           ,010                                     
#RANGE:                ,20.0°C/3.0(K/min)/1100.0°C              
#SEGMENT:              ,S1/1                                    
#SEG. 1:               ,20.0°C/3.0(K/min)/1100.0°C              

##Temp./°C,Time/min,dL/Lo
  22.72300,  0.00000, 2.3712e-005
  23.22300,  4.55022, 4.8934e-006
  23.72300,  4.94387,-5.2525e-006
  24.22300,  5.21500,-1.3680e-005
  24.72300,  5.43176,-2.1070e-005
  25.22300,  5.61926,-2.7381e-005
  25.72300,  5.78680,-3.3490e-005
  26.22300,  5.94050,-3.8866e-005
  26.72300,  6.08430,-4.2922e-005
  27.22300,  6.22039,-4.7312e-005
  27.72300,  6.34995,-5.1259e-005
  28.22300,  6.47447,-5.4775e-005
  28.72300,  6.59507,-5.7284e-005
  29.22300,  6.71223,-5.9935e-005
  29.72300,  6.82665,-6.2106e-005
  30.22300,  6.93874,-6.3464e-005
  30.72300,  7.04938,-6.4779e-005
  31.22300,  7.15879,-6.5739e-005
  31.72300,  7.26669,-6.6601e-005
  32.22300,  7.37352,-6.7108e-005
  32.72300,  7.47973,-6.7204e-005
  33.22300,  7.58521,-6.6570e-005
  33.72300,  7.69010,-6.5938e-005
  34.22300,  7.79422,-6.5670e-005
  34.72300,  7.89803,-6.4276e-005
  35.22300,  8.00172,-6.2472e-005
  35.72300,  8.10546,-6.0626e-005
  36.22300,  8.20896,-5.9012e-005
  36.72300,  8.31233,-5.6771e-005
  37.22300,  8.41607,-5.4597e-005
  37.72300,  8.51990,-5.1937e-005
  38.22300,  8.62358,-4.8943e-005
  38.72300,  8.72736,-4.5857e-005
  39.22300,  8.83095,-4.2687e-005
  39.72300,  8.93460,-3.9350e-005
  40.22300,  9.03787,-3.5605e-005
  40.72300,  9.14082,-3.2204e-005
  41.22300,  9.24368,-2.8247e-005
  41.72300,  9.34642,-2.4520e-005
  42.22300,  9.44908,-2.0608e-005
  42.72300,  9.55156,-1.6446e-005
  43.22300,  9.65412,-1.2299e-005
  43.72300,  9.75684,-8.5400e-006
  44.22300,  9.85913,-4.1983e-006
  44.72300,  9.96115, 2.4172e-007
  45.22300, 10.06285, 4.3187e-006
  45.72300, 10.16423, 8.8578e-006
  46.22300, 10.26535, 1.3214e-005
  46.72300, 10.36597, 1.8212e-005
  47.22300, 10.46622, 2.2023e-005
  47.72300, 10.56597, 2.7281e-005
  48.22300, 10.66543, 3.1597e-005
  48.72300, 10.76465, 3.6463e-005
  49.22300, 10.86353, 4.0940e-005
  49.72300, 10.96194, 4.5733e-005
  50.22300, 11.06004, 5.0353e-005
  50.72300, 11.15780, 5.5326e-005
  51.22300, 11.25539, 5.9722e-005
  51.72300, 11.35280, 6.4504e-005
  52.22300, 11.44971, 6.9837e-005
  52.72300, 11.54627, 7.4878e-005
  53.22300, 11.64255, 7.9737e-005
  53.72300, 11.73841, 8.4578e-005
  54.22300, 11.83416, 9.0095e-005
  54.72300, 11.92972, 9.5354e-005
  55.22300, 12.02502, 1.0092e-004
  55.72300, 12.12022, 1.0577e-004
  56.22300, 12.21524, 1.1114e-004
  56.72300, 12.31000, 1.1668e-004
  57.22300, 12.40470, 1.2187e-004
  57.72300, 12.49933, 1.2759e-004
  58.22300, 12.59365, 1.3326e-004
  58.72300, 12.68793, 1.3858e-004
  59.22300, 12.78180, 1.4442e-004
  59.72300, 12.87566, 1.4999e-004
  60.22300, 12.96948, 1.5578e-004
  60.72300, 13.06343, 1.6149e-004
  61.22300, 13.15725, 1.6757e-004
  61.72300, 13.25102, 1.7342e-004
  62.22300, 13.34486, 1.7934e-004
  62.72300, 13.43856, 1.8559e-004
  63.22300, 13.53231, 1.9193e-004
  63.72300, 13.62596, 1.9811e-004
  64.22300, 13.71950, 2.0452e-004
  64.72300, 13.81309, 2.1058e-004
  65.22300, 13.90667, 2.1693e-004
  65.72300, 14.00021, 2.2382e-004
  66.22300, 14.09401, 2.2991e-004
  66.72300, 14.18779, 2.3689e-004
  67.22300, 14.28194, 2.4348e-004
  67.72300, 14.37619, 2.5037e-004
  68.22300, 14.47041, 2.5696e-004
  68.72300, 14.56471, 2.6348e-004
  69.22300, 14.65896, 2.7047e-004
  69.72300, 14.75317, 2.7734e-004
  70.22300, 14.84721, 2.8440e-004
  70.72300, 14.94140, 2.9136e-004
  71.22300, 15.03547, 2.9862e-004
  71.72300, 15.12968, 3.0533e-004
  72.22300, 15.22423, 3.1258e-004
  72.72300, 15.31876, 3.1965e-004
  73.22300, 15.41351, 3.2649e-004
  73.72300, 15.50840, 3.3384e-004
  74.22300, 15.60340, 3.4105e-004
  74.72300, 15.69849, 3.4863e-004
  75.22300, 15.79344, 3.5567e-004
  75.72300, 15.88850, 3.6277e-004
  76.22300, 15.98361, 3.7028e-004
  76.72300, 16.07887, 3.7740e-004
  77.22300, 16.17408, 3.8497e-004
  77.72300, 16.26924, 3.9205e-004
  78.22300, 16.36451, 3.9954e-004
  78.72300, 16.45990, 4.0708e-004
  79.22300, 16.55533, 4.1455e-004
  79.72300, 16.65084, 4.2225e-004
  80.22300, 16.74650, 4.2974e-004
  80.72300, 16.84228, 4.3767e-004
  81.22300, 16.93786, 4.4520e-004
  81.72300, 17.03385, 4.5296e-004
  82.22300, 17.12984, 4.6090e-004
  82.72300, 17.22587, 4.6857e-004
  83.22300, 17.32227, 4.7695e-004
  83.72300, 17.41910, 4.8427e-004
  84.22300, 17.51605, 4.9239e-004
  84.72300, 17.61289, 5.0034e-004
  85.22300, 17.70991, 5.0800e-004
  85.72300, 17.80697, 5.1654e-004
  86.22300, 17.90430, 5.2450e-004
  86.72300, 18.00161, 5.3262e-004
  87.22300, 18.09858, 5.4039e-004
  87.72300, 18.19547, 5.4919e-004
  88.22300, 18.29261, 5.5728e-004
  88.72300, 18.39020, 5.6589e-004
  89.22300, 18.48764, 5.7445e-004
  89.72300, 18.58524, 5.8258e-004
  90.22300, 18.68301, 5.9110e-004
  90.72300, 18.78104, 5.9932e-004
  91.22300, 18.87936, 6.0779e-004
  91.72300, 18.97798, 6.1664e-004
  92.22300, 19.07678, 6.2514e-004
  92.72300, 19.17573, 6.3361e-004
  93.22300, 19.27492, 6.4195e-004
  93.72300, 19.37425, 6.5075e-004
  94.22300, 19.47384, 6.5939e-004
  94.72300, 19.57344, 6.6795e-004
  95.22300, 19.67315, 6.7636e-004
  95.72300, 19.77293, 6.8472e-004
  96.22300, 19.87301, 6.9386e-004
  96.72300, 19.97317, 7.0255e-004
  97.22300, 20.07343, 7.1088e-004
  97.72300, 20.17372, 7.1897e-004
  98.22300, 20.27413, 7.2819e-004
  98.72300, 20.37462, 7.3707e-004
  99.22300, 20.47515, 7.4513e-004
  99.72300, 20.57562, 7.5364e-004
 100.22300, 20.67626, 7.6213e-004
 100.72300, 20.77691, 7.7041e-004
 101.22300, 20.87751, 7.7915e-004
 101.72300, 20.97793, 7.8740e-004
 102.22300, 21.07839, 7.9574e-004
 102.72300, 21.17895, 8.0437e-004
 103.22300, 21.27956, 8.1280e-004
 103.72300, 21.37995, 8.2059e-004
 104.22300, 21.48033, 8.2913e-004
 104.72300, 21.58067, 8.3772e-004
 105.22300, 21.68104, 8.4634e-004
 105.72300, 21.78111, 8.5407e-004
 106.22300, 21.88093, 8.6261e-004
 106.72300, 21.98066, 8.7084e-004
 107.22300, 22.08032, 8.7870e-004
 107.72300, 22.17993, 8.8686e-004
 108.22300, 22.27913, 8.9498e-004
 108.72300, 22.37814, 9.0325e-004
 109.22300, 22.47684, 9.1160e-004
 109.72300, 22.57545, 9.1959e-004
 110.22300, 22.67389, 9.2755e-004
 110.72300, 22.77239, 9.3582e-004
 111.22300, 22.87048, 9.4388e-004
 111.72300, 22.96861, 9.5144e-004
 112.22300, 23.06680, 9.5972e-004
 112.72300, 23.16500, 9.6791e-004
 113.22300, 23.26329, 9.7618e-004
 113.72300, 23.36148, 9.8427e-004
 114.22300, 23.45955, 9.9209e-004
 114.72300, 23.55754, 1.0008e-003
 115.22300, 23.65554, 1.0087e-003
 115.72300, 23.75342, 1.0167e-003
 116.22300, 23.85123, 1.0249e-003
 116.72300, 23.94889, 1.0332e-003
 117.22300, 24.04657, 1.0413e-003
 117.72300, 24.14420, 1.0491e-003
 118.22300, 24.24186, 1.0577e-003
 118.72300, 24.33949, 1.0660e-003
 119.22300, 24.43742, 1.0745e-003
 119.72300, 24.53555, 1.0825e-003
 120.22300, 24.63377, 1.0909e-003
 120.72300, 24.73193, 1.0989e-003
 121.22300, 24.83008, 1.1075e-003
 121.72300, 24.92828, 1.1157e-003
 122.22300, 25.02652, 1.1242e-003
 122.72300, 25.12469, 1.1326e-003
 123.22300, 25.22286, 1.1411e-003
 123.72300, 25.32103, 1.1492e-003
 124.22300, 25.41926, 1.1583e-003
 124.72300, 25.51777, 1.1665e-003
 125.22300, 25.61664, 1.1746e-003
 125.72300, 25.71570, 1.1837e-003
 126.22300, 25.81481, 1.1921e-003
 126.72300, 25.91400, 1.2010e-003
 127.22300, 26.01347, 1.2090e-003
 127.72300, 26.11309, 1.2175e-003
 128.22300, 26.21287, 1.2264e-003
 128.72300, 26.31245, 1.2351e-003
 129.22300, 26.41199, 1.2437e-003
 129.72300, 26.51209, 1.2526e-003
 130.22300, 26.61219, 1.2617e-003
 130.72300, 26.71234, 1.2700e-003
 131.22300, 26.81262, 1.2789e-003
 131.72300, 26.91333, 1.2879e-003
 132.22300, 27.01429, 1.2966e-003
 132.72300, 27.11543, 1.3050e-003
 133.22300, 27.21656, 1.3135e-003
 133.72300, 27.31786, 1.3229e-003
 134.22300, 27.41893, 1.3318e-003
 134.72300, 27.52014, 1.3405e-003
 135.22300, 27.62127, 1.3489e-003
 135.72300, 27.72243, 1.3579e-003
 136.22300, 27.82368, 1.3673e-003
 136.72300, 27.92499, 1.3757e-003
 137.22300, 28.02621, 1.3850e-003
 137.72300, 28.12792, 1.3934e-003
 138.22300, 28.22977, 1.4028e-003
 138.72300, 28.33175, 1.4118e-003
 139.22300, 28.43392, 1.4204e-003
 139.72300, 28.53626, 1.4299e-003
 140.22300, 28.63877, 1.4385e-003
 140.72300, 28.74155, 1.4470e-003
 141.22300, 28.84435, 1.4558e-003
 141.72300, 28.94740, 1.4655e-003
 142.22300, 29.05037, 1.4741e-003
 142.72300, 29.15334, 1.4828e-003
 143.22300, 29.25667, 1.4922e-003
 143.72300, 29.36024, 1.5011e-003
 144.22300, 29.46375, 1.5101e-003
 144.72300, 29.56756, 1.5195e-003
 145.22300, 29.67115, 1.5280e-003
 145.72300, 29.77478, 1.5372e-003
 146.22300, 29.87855, 1.5462e-003
 146.72300, 29.98219, 1.5550e-003
 147.22300, 30.08587, 1.5641e-003
 147.72300, 30.18979, 1.5727e-003
 148.22300, 30.29374, 1.5824e-003
 148.72300, 30.39808, 1.5913e-003
 149.22300, 30.50276, 1.6004e-003
 149.72300, 30.60783, 1.6093e-003
 150.22300, 30.71323, 1.6184e-003
 150.72300, 30.81873, 1.6272e-003
 151.22300, 30.92439, 1.6363e-003
 151.72300, 31.03015, 1.6452e-003
 152.22300, 31.13580, 1.6543e-003
 152.72300, 31.24144, 1.6637e-003
 153.22300, 31.34685, 1.6728e-003
 153.72300, 31.45221, 1.6818e-003
 154.22300, 31.55755, 1.6907e-003
 154.72300, 31.66304, 1.6995e-003
 155.22300, 31.76872, 1.7089e-003
 155.72300, 31.87485, 1.7180e-003
 156.22300, 31.98085, 1.7269e-003
 156.72300, 32.08703, 1.7361e-003
 157.22300, 32.19337, 1.7450e-003
 157.72300, 32.29979, 1.7541e-003
 158.22300, 32.40640, 1.7633e-003
 158.72300, 32.51283, 1.7725e-003
 159.22300, 32.61920, 1.7811e-003
 159.72300, 32.72585, 1.7906e-003
 160.22300, 32.83270, 1.7998e-003
 160.72300, 32.93968, 1.8090e-003
 161.22300, 33.04684, 1.8175e-003
 161.72300, 33.15401, 1.8266e-003
 162.22300, 33.26161, 1.8359e-003
 162.72300, 33.36930, 1.8447e-003
 163.22300, 33.47707, 1.8540e-003
 163.72300, 33.58493, 1.8630e-003
 164.22300, 33.69286, 1.8719e-003
 164.72300, 33.80096, 1.8810e-003
 165.22300, 33.90919, 1.8901e-003
 165.72300, 34.01746, 1.8989e-003
 166.22300, 34.12587, 1.9086e-003
 166.72300, 34.23421, 1.9173e-003
 167.22300, 34.34283, 1.9267e-003
 167.72300, 34.45142, 1.9358e-003
 168.22300, 34.56020, 1.9451e-003
 168.72300, 34.66903, 1.9541e-003
 169.22300, 34.77782, 1.9634e-003
 169.72300, 34.88648, 1.9725e-003
 170.22300, 34.99536, 1.9816e-003
 170.72300, 35.10421, 1.9908e-003
 171.22300, 35.21322, 2.0000e-003
 171.72300, 35.32252, 2.0088e-003
 172.22300, 35.43199, 2.0181e-003
 172.72300, 35.54178, 2.0269e-003
 173.22300, 35.65166, 2.0359e-003
 173.72300, 35.76123, 2.0450e-003
 174.22300, 35.87084, 2.0545e-003
 174.72300, 35.98046, 2.0635e-003
 175.22300, 36.08997, 2.0728e-003
 175.72300, 36.19964, 2.0817e-003
 176.22300, 36.30904, 2.0907e-003
 176.72300, 36.41898, 2.1000e-003
 177.22300, 36.52900, 2.1088e-003
 177.72300, 36.63924, 2.1178e-003
 178.22300, 36.74962, 2.1269e-003
 178.72300, 36.86010, 2.1364e-003
 179.22300, 36.97068, 2.1456e-003
 179.72300, 37.08127, 2.1545e-003
 180.22300, 37.19187, 2.1639e-003
 180.72300, 37.30256, 2.1727e-003
 181.22300, 37.41308, 2.1822e-003
 181.72300, 37.52359, 2.1912e-003
 182.22300, 37.63435, 2.2005e-003
 182.72300, 37.74530, 2.2099e-003
 183.22300, 37.85649, 2.2186e-003
 183.72300, 37.96775, 2.2278e-003
 184.22300, 38.07915, 2.2368e-003
 184.72300, 38.19075, 2.2455e-003
 185.22300, 38.30237, 2.2547e-003
 185.72300, 38.41390, 2.2641e-003
 186.22300, 38.52546, 2.2728e-003
 186.72300, 38.63720, 2.2819e-003
 187.22300, 38.74897, 2.2909e-003
 187.72300, 38.86079, 2.2998e-003
 188.22300, 38.97257, 2.3092e-003
 188.72300, 39.08467, 2.3185e-003
 189.22300, 39.19683, 2.3274e-003
 189.72300, 39.30899, 2.3370e-003
 190.22300, 39.42116, 2.3459e-003
 190.72300, 39.53336, 2.3547e-003
 191.22300, 39.64553, 2.3638e-003
 191.72300, 39.75782, 2.3731e-003
 192.22300, 39.87020, 2.3826e-003
 192.72300, 39.98251, 2.3912e-003
 193.22300, 40.09508, 2.4006e-003
 193.72300, 40.20765, 2.4098e-003
 194.22300, 40.32045, 2.4188e-003
 194.72300, 40.43320, 2.4273e-003
 195.22300, 40.54627, 2.4371e-003
 195.72300, 40.65917, 2.4461e-003
 196.22300, 40.77222, 2.4553e-003
 196.72300, 40.88524, 2.4636e-003
 197.22300, 40.99837, 2.4733e-003
 197.72300, 41.11162, 2.4825e-003
 198.22300, 41.22496, 2.4916e-003
 198.72300, 41.33842, 2.5005e-003
 199.22300, 41.45195, 2.5096e-003
 199.72300, 41.56564, 2.5188e-003
 200.22300, 41.67951, 2.5279e-003
 200.72300, 41.79340, 2.5368e-003
 201.22300, 41.90710, 2.5459e-003
 201.72300, 42.02090, 2.5550e-003
 202.22300, 42.13474, 2.5637e-003
 202.72300, 42.24865, 2.5732e-003
 203.22300, 42.36246, 2.5820e-003
 203.72300, 42.47629, 2.5912e-003
 204.22300, 42.59022, 2.6002e-003
 204.72300, 42.70429, 2.6097e-003
 205.22300, 42.81864, 2.6185e-003
 205.72300, 42.93308, 2.6275e-003
 206.22300, 43.04747, 2.6368e-003
 206.72300, 43.16172, 2.6449e-003
 207.22300, 43.27620, 2.6544e-003
 207.72300, 43.39062, 2.6632e-003
 208.22300, 43.50463, 2.6728e-003
 208.72300, 43.61863, 2.6816e-003
 209.22300, 43.73282, 2.6906e-003
 209.72300, 43.84733, 2.6993e-003
 210.22300, 43.96176, 2.7082e-003
 210.72300, 44.07627, 2.7173e-003
 211.22300, 44.19099, 2.7266e-003
 211.72300, 44.30577, 2.7352e-003
 212.22300, 44.42046, 2.7443e-003
 212.72300, 44.53522, 2.7531e-003
 213.22300, 44.65018, 2.7620e-003
 213.72300, 44.76524, 2.7713e-003
 214.22300, 44.88050, 2.7804e-003
 214.72300, 44.99594, 2.7893e-003
 215.22300, 45.11147, 2.7991e-003
 215.72300, 45.22707, 2.8076e-003
 216.22300, 45.34265, 2.8163e-003
 216.72300, 45.45821, 2.8255e-003
 217.22300, 45.57390, 2.8344e-003
 217.72300, 45.68940, 2.8436e-003
 218.22300, 45.80515, 2.8530e-003
 218.72300, 45.92099, 2.8622e-003
 219.22300, 46.03694, 2.8713e-003
 219.72300, 46.15287, 2.8799e-003
 220.22300, 46.26901, 2.8895e-003
 220.72300, 46.38542, 2.8983e-003
 221.22300, 46.50213, 2.9075e-003
 221.72300, 46.61885, 2.9163e-003
 222.22300, 46.73571, 2.9252e-003
 222.72300, 46.85262, 2.9346e-003
 223.22300, 46.96956, 2.9437e-003
 223.72300, 47.08621, 2.9529e-003
 224.22300, 47.20278, 2.9622e-003
 224.72300, 47.31939, 2.9706e-003
 225.22300, 47.43598, 2.9801e-003
 225.72300, 47.55255, 2.9889e-003
 226.22300, 47.66925, 2.9978e-003
 226.72300, 47.78619, 3.0065e-003
 227.22300, 47.90340, 3.0158e-003
 227.72300, 48.02057, 3.0246e-003
 228.22300, 48.13805, 3.0338e-003
 228.72300, 48.25600, 3.0428e-003
 229.22300, 48.37383, 3.0519e-003
 229.72300, 48.49151, 3.0610e-003
 230.22300, 48.60867, 3.0697e-003
 230.72300, 48.72595, 3.0795e-003
 231.22300, 48.84333, 3.0883e-003
 231.72300, 48.96068, 3.0974e-003
 232.22300, 49.07812, 3.1060e-003
 232.72300, 49.19573, 3.1146e-003
 233.22300, 49.31371, 3.1239e-003
 233.72300, 49.43188, 3.1328e-003
 234.22300, 49.55000, 3.1424e-003
 234.72300, 49.66796, 3.1510e-003
 235.22300, 49.78600, 3.1605e-003
 235.72300, 49.90429, 3.1694e-003
 236.22300, 50.02280, 3.1785e-003
 236.72300, 50.14108, 3.1871e-003
 237.22300, 50.25931, 3.1960e-003
 237.72300, 50.37760, 3.2053e-003
 238.22300, 50.49597, 3.2141e-003
 238.72300, 50.61438, 3.2232e-003
 239.22300, 50.73284, 3.2320e-003
 239.72300, 50.85164, 3.2416e-003
 240.22300, 50.97077, 3.2503e-003
 240.72300, 51.08993, 3.2598e-003
 241.22300, 51.20932, 3.2686e-003
 241.72300, 51.32877, 3.2779e-003
 242.22300, 51.44817, 3.2867e-003
 242.72300, 51.56784, 3.2956e-003
 243.22300, 51.68751, 3.3048e-003
 243.72300, 51.80746, 3.3143e-003
 244.22300, 51.92733, 3.3235e-003
 244.72300, 52.04723, 3.3322e-003
 245.22300, 52.16752, 3.3410e-003
 245.72300, 52.28771, 3.3502e-003
 246.22300, 52.40796, 3.3596e-003
 246.72300, 52.52819, 3.3685e-003
 247.22300, 52.64821, 3.3776e-003
 247.72300, 52.76847, 3.3867e-003
 248.22300, 52.88862, 3.3959e-003
 248.72300, 53.00883, 3.4046e-003
 249.22300, 53.12906, 3.4140e-003
 249.72300, 53.24953, 3.4223e-003
 250.22300, 53.37022, 3.4323e-003
 250.72300, 53.49082, 3.4409e-003
 251.22300, 53.61162, 3.4499e-003
 251.72300, 53.73242, 3.4591e-003
 252.22300, 53.85314, 3.4677e-003
 252.72300, 53.97375, 3.4769e-003
 253.22300, 54.09460, 3.4862e-003
 253.72300, 54.21553, 3.4952e-003
 254.22300, 54.33638, 3.5042e-003
 254.72300, 54.45751, 3.5131e-003
 255.22300, 54.57869, 3.5221e-003
 255.72300, 54.70007, 3.5312e-003
 256.22300, 54.82148, 3.5398e-003
 256.72300, 54.94311, 3.5490e-003
 257.22300, 55.06466, 3.5583e-003
 257.72300, 55.18628, 3.5671e-003
 258.22300, 55.30810, 3.5757e-003
 258.72300, 55.42990, 3.5851e-003
 259.22300, 55.55174, 3.5938e-003
 259.72300, 55.67338, 3.6031e-003
 260.22300, 55.79512, 3.6121e-003
 260.72300, 55.91683, 3.6212e-003
 261.22300, 56.03863, 3.6301e-003
 261.72300, 56.16056, 3.6386e-003
 262.22300, 56.28271, 3.6481e-003
 262.72300, 56.40503, 3.6563e-003
 263.22300, 56.52761, 3.6667e-003
 263.72300, 56.65029, 3.6749e-003
 264.22300, 56.77296, 3.6844e-003
 264.72300, 56.89574, 3.6930e-003
 265.22300, 57.01858, 3.7017e-003
 265.72300, 57.14158, 3.7111e-003
 266.22300, 57.26454, 3.7197e-003
 266.72300, 57.38757, 3.7291e-003
 267.22300, 57.51064, 3.7386e-003
 267.72300, 57.63385, 3.7471e-003
 268.22300, 57.75705, 3.7557e-003
 268.72300, 57.88026, 3.7650e-003
 269.22300, 58.00361, 3.7741e-003
 269.72300, 58.12700, 3.7833e-003
 270.22300, 58.25050, 3.7927e-003
 270.72300, 58.37391, 3.8018e-003
 271.22300, 58.49733, 3.8109e-003
 271.72300, 58.62060, 3.8199e-003
 272.22300, 58.74408, 3.8283e-003
 272.72300, 58.86769, 3.8374e-003
 273.22300, 58.99130, 3.8465e-003
 273.72300, 59.11512, 3.8554e-003
 274.22300, 59.23928, 3.8649e-003
 274.72300, 59.36371, 3.8740e-003
 275.22300, 59.48809, 3.8826e-003
 275.72300, 59.61269, 3.8918e-003
 276.22300, 59.73755, 3.9007e-003
 276.72300, 59.86262, 3.9095e-003
 277.22300, 59.98754, 3.9187e-003
 277.72300, 60.11261, 3.9272e-003
 278.22300, 60.23785, 3.9370e-003
 278.72300, 60.36304, 3.9460e-003
 279.22300, 60.48812, 3.9546e-003
 279.72300, 60.61321, 3.9634e-003
 280.22300, 60.73834, 3.9724e-003
 280.72300, 60.86349, 3.9820e-003
 281.22300, 60.98856, 3.9906e-003
 281.72300, 61.11387, 3.9999e-003
 282.22300, 61.23907, 4.0088e-003
 282.72300, 61.36448, 4.0174e-003
 283.22300, 61.49001, 4.0267e-003
 283.72300, 61.61557, 4.0354e-003
 284.22300, 61.74135, 4.0449e-003
 284.72300, 61.86732, 4.0537e-003
 285.22300, 61.99351, 4.0631e-003
 285.72300, 62.11956, 4.0714e-003
 286.22300, 62.24588, 4.0809e-003
 286.72300, 62.37243, 4.0896e-003
 287.22300, 62.49885, 4.0990e-003
 287.72300, 62.62540, 4.1076e-003
 288.22300, 62.75203, 4.1162e-003
 288.72300, 62.87877, 4.1252e-003
 289.22300, 63.00565, 4.1351e-003
 289.72300, 63.13262, 4.1438e-003
 290.22300, 63.25974, 4.1528e-003
 290.72300, 63.38695, 4.1614e-003
 291.22300, 63.51437, 4.1700e-003
 291.72300, 63.64157, 4.1797e-003
 292.22300, 63.76874, 4.1882e-003
 292.72300, 63.89606, 4.1978e-003
 293.22300, 64.02337, 4.2063e-003
 293.72300, 64.15077, 4.2157e-003
 294.22300, 64.27839, 4.2247e-003
 294.72300, 64.40615, 4.2338e-003
 295.22300, 64.53381, 4.2431e-003
 295.72300, 64.66152, 4.2515e-003
 296.22300, 64.78921, 4.2615e-003
 296.72300, 64.91704, 4.2704e-003
 297.22300, 65.04516, 4.2791e-003
 297.72300, 65.17331, 4.2881e-003
 298.22300, 65.30157, 4.2967e-003
 298.72300, 65.42992, 4.3061e-003
 299.22300, 65.55841, 4.3150e-003
 299.72300, 65.68700, 4.3243e-003
 300.22300, 65.81552, 4.3331e-003
 300.72300, 65.94431, 4.3414e-003
 301.22300, 66.07324, 4.3506e-003
 301.72300, 66.20216, 4.3595e-003
 302.22300, 66.33095, 4.3691e-003
 302.72300, 66.45996, 4.3773e-003
 303.22300, 66.58883, 4.3867e-003
 303.72300, 66.71772, 4.3957e-003
 304.22300, 66.84676, 4.4048e-003
 304.72300, 66.97614, 4.4138e-003
 305.22300, 67.10559, 4.4227e-003
 305.72300, 67.23507, 4.4311e-003
 306.22300, 67.36490, 4.4406e-003
 306.72300, 67.49448, 4.4488e-003
 307.22300, 67.62408, 4.4582e-003
 307.72300, 67.75402, 4.4677e-003
 308.22300, 67.88398, 4.4767e-003
 308.72300, 68.01387, 4.4853e-003
 309.22300, 68.14434, 4.4936e-003
 309.72300, 68.27503, 4.5035e-003
 310.22300, 68.40560, 4.5127e-003
 310.72300, 68.53590, 4.5216e-003
 311.22300, 68.66617, 4.5302e-003
 311.72300, 68.79642, 4.5385e-003
 312.22300, 68.92666, 4.5482e-003
 312.72300, 69.05691, 4.5572e-003
 313.22300, 69.18732, 4.5654e-003
 313.72300, 69.31805, 4.5747e-003
 314.22300, 69.44893, 4.5837e-003
 314.72300, 69.57986, 4.5928e-003
 315.22300, 69.71100, 4.6020e-003
 315.72300, 69.84235, 4.6107e-003
 316.22300, 69.97371, 4.6197e-003
 316.72300, 70.10512, 4.6286e-003
 317.22300, 70.23672, 4.6377e-003
 317.72300, 70.36798, 4.6464e-003
 318.22300, 70.49925, 4.6557e-003
 318.72300, 70.63084, 4.6643e-003
 319.22300, 70.76263, 4.6731e-003
 319.72300, 70.89439, 4.6822e-003
 320.22300, 71.02616, 4.6909e-003
 320.72300, 71.15806, 4.7004e-003
 321.22300, 71.28999, 4.7090e-003
 321.72300, 71.42179, 4.7182e-003
 322.22300, 71.55353, 4.7271e-003
 322.72300, 71.68530, 4.7360e-003
 323.22300, 71.81720, 4.7453e-003
 323.72300, 71.94917, 4.7540e-003
 324.22300, 72.08116, 4.7625e-003
 324.72300, 72.21328, 4.7717e-003
 325.22300, 72.34559, 4.7806e-003
 325.72300, 72.47808, 4.7900e-003
 326.22300, 72.61081, 4.7985e-003
 326.72300, 72.74369, 4.8074e-003
 327.22300, 72.87661, 4.8166e-003
 327.72300, 73.00951, 4.8253e-003
 328.22300, 73.14268, 4.8338e-003
 328.72300, 73.27576, 4.8436e-003
 329.22300, 73.40887, 4.8523e-003
 329.72300, 73.54193, 4.8617e-003
 330.22300, 73.67546, 4.8699e-003
 330.72300, 73.80906, 4.8794e-003
 331.22300, 73.94284, 4.8885e-003
 331.72300, 74.07676, 4.8969e-003
 332.22300, 74.21083, 4.9063e-003
 332.72300, 74.34488, 4.9154e-003
 333.22300, 74.47877, 4.9236e-003
 333.72300, 74.61262, 4.9331e-003
 334.22300, 74.74637, 4.9420e-003
 334.72300, 74.88020, 4.9507e-003
 335.22300, 75.01424, 4.9598e-003
 335.72300, 75.14856, 4.9685e-003
 336.22300, 75.28336, 4.9769e-003
 336.72300, 75.41858, 4.9862e-003
 337.22300, 75.55375, 4.9946e-003
 337.72300, 75.68862, 5.0039e-003
 338.22300, 75.82330, 5.0122e-003
 338.72300, 75.95769, 5.0209e-003
 339.22300, 76.09168, 5.0306e-003
 339.72300, 76.22580, 5.0394e-003
 340.22300, 76.36049, 5.0478e-003
 340.72300, 76.49565, 5.0573e-003
 341.22300, 76.63088, 5.0658e-003
 341.72300, 76.76630, 5.0747e-003
 342.22300, 76.90204, 5.0844e-003
 342.72300, 77.03765, 5.0929e-003
 343.22300, 77.17303, 5.1024e-003
 343.72300, 77.30870, 5.1112e-003
 344.22300, 77.44409, 5.1196e-003
 344.72300, 77.57970, 5.1290e-003
 345.22300, 77.71540, 5.1383e-003
 345.72300, 77.85136, 5.1471e-003
 346.22300, 77.98745, 5.1560e-003
 346.72300, 78.12401, 5.1652e-003
 347.22300, 78.26056, 5.1742e-003
 347.72300, 78.39783, 5.1828e-003
 348.22300, 78.53520, 5.1919e-003
 348.72300, 78.67258, 5.2006e-003
 349.22300, 78.81049, 5.2101e-003
 349.72300, 78.94842, 5.2189e-003
 350.22300, 79.08593, 5.2277e-003
 350.72300, 79.22362, 5.2365e-003
 351.22300, 79.36137, 5.2458e-003
 351.72300, 79.49886, 5.2537e-003
 352.22300, 79.63649, 5.2631e-003
 352.72300, 79.77423, 5.2723e-003
 353.22300, 79.91200, 5.2814e-003
 353.72300, 80.04961, 5.2902e-003
 354.22300, 80.18731, 5.2987e-003
 354.72300, 80.32486, 5.3079e-003
 355.22300, 80.46258, 5.3164e-003
 355.72300, 80.59980, 5.3248e-003
 356.22300, 80.73742, 5.3343e-003
 356.72300, 80.87520, 5.3429e-003
 357.22300, 81.01296, 5.3518e-003
 357.72300, 81.15064, 5.3599e-003
 358.22300, 81.28873, 5.3687e-003
 358.72300, 81.42684, 5.3779e-003
 359.22300, 81.56496, 5.3865e-003
 359.72300, 81.70360, 5.3956e-003
 360.22300, 81.84248, 5.4042e-003
 360.72300, 81.98121, 5.4133e-003
 361.22300, 82.12005, 5.4222e-003
 361.72300, 82.25897, 5.4313e-003
 362.22300, 82.39759, 5.4405e-003
 362.72300, 82.53604, 5.4490e-003
 363.22300, 82.67492, 5.4578e-003
 363.72300, 82.81399, 5.4672e-003
 364.22300, 82.95320, 5.4759e-003
 364.72300, 83.09236, 5.4847e-003
 365.22300, 83.23164, 5.4940e-003
 365.72300, 83.37079, 5.5029e-003
 366.22300, 83.51011, 5.5116e-003
 366.72300, 83.64937, 5.5209e-003
 367.22300, 83.78921, 5.5295e-003
 367.72300, 83.92936, 5.5381e-003
 368.22300, 84.06965, 5.5472e-003
 368.72300, 84.20987, 5.5561e-003
 369.22300, 84.35037, 5.5648e-003
 369.72300, 84.49059, 5.5743e-003
 370.22300, 84.63075, 5.5828e-003
 370.72300, 84.77089, 5.5914e-003
 371.22300, 84.91122, 5.6007e-003
 371.72300, 85.05141, 5.6097e-003
 372.22300, 85.19181, 5.6183e-003
 372.72300, 85.33229, 5.6270e-003
 373.22300, 85.47321, 5.6365e-003
 373.72300, 85.61434, 5.6451e-003
 374.22300, 85.75537, 5.6544e-003
 374.72300, 85.89658, 5.6628e-003
 375.22300, 86.03768, 5.6717e-003
 375.72300, 86.17844, 5.6815e-003
 376.22300, 86.31914, 5.6901e-003
 376.72300, 86.45987, 5.6990e-003
 377.22300, 86.60054, 5.7073e-003
 377.72300, 86.74150, 5.7168e-003
 378.22300, 86.88293, 5.7257e-003
 378.72300, 87.02463, 5.7343e-003
 379.22300, 87.16698, 5.7439e-003
 379.72300, 87.30951, 5.7524e-003
 380.22300, 87.45198, 5.7618e-003
 380.72300, 87.59417, 5.7709e-003
 381.22300, 87.73639, 5.7793e-003
 381.72300, 87.87829, 5.7884e-003
 382.22300, 88.01988, 5.7975e-003
 382.72300, 88.16171, 5.8062e-003
 383.22300, 88.30349, 5.8155e-003
 383.72300, 88.44542, 5.8249e-003
 384.22300, 88.58755, 5.8341e-003
 384.72300, 88.73051, 5.8424e-003
 385.22300, 88.87329, 5.8519e-003
 385.72300, 89.01645, 5.8617e-003
 386.22300, 89.15950, 5.8709e-003
 386.72300, 89.30260, 5.8799e-003
 387.22300, 89.44562, 5.8897e-003
 387.72300, 89.58923, 5.8985e-003
 388.22300, 89.73312, 5.9084e-003
 388.72300, 89.87760, 5.9168e-003
 389.22300, 90.02243, 5.9265e-003
 389.72300, 90.16763, 5.9361e-003
 390.22300, 90.31296, 5.9455e-003
 390.72300, 90.45872, 5.9555e-003
 391.22300, 90.60457, 5.9651e-003
 391.72300, 90.75080, 5.9740e-003
 392.22300, 90.89739, 5.9834e-003
 392.72300, 91.04414, 5.9929e-003
 393.22300, 91.19063, 6.0025e-003
 393.72300, 91.33708, 6.0114e-003
 394.22300, 91.48336, 6.0204e-003
 394.72300, 91.62911, 6.0296e-003
 395.22300, 91.77478, 6.0384e-003
 395.72300, 91.91987, 6.0471e-003
 396.22300, 92.06458, 6.0555e-003
 396.72300, 92.20859, 6.0650e-003
 397.22300, 92.35194, 6.0729e-003
 397.72300, 92.49437, 6.0815e-003
 398.22300, 92.63657, 6.0899e-003
 398.72300, 92.77799, 6.0986e-003
 399.22300, 92.91897, 6.1064e-003
 399.72300, 93.05929, 6.1143e-003
 400.22300, 93.19945, 6.1227e-003
 400.72300, 93.33919, 6.1320e-003
 401.22300, 93.47865, 6.1393e-003
 401.72300, 93.61761, 6.1475e-003
 402.22300, 93.75637, 6.1555e-003
 402.72300, 93.89484, 6.1644e-003
 403.22300, 94.03318, 6.1729e-003
 403.72300, 94.17130, 6.1808e-003
 404.22300, 94.30957, 6.1891e-003
 404.72300, 94.44845, 6.1981e-003
 405.22300, 94.58745, 6.2062e-003
 405.72300, 94.72624, 6.2141e-003
 406.22300, 94.86541, 6.2237e-003
 406.72300, 95.00482, 6.2320e-003
 407.22300, 95.14414, 6.2408e-003
 407.72300, 95.28394, 6.2502e-003
 408.22300, 95.42425, 6.2590e-003
 408.72300, 95.56504, 6.2670e-003
 409.22300, 95.70621, 6.2761e-003
 409.72300, 95.84786, 6.2854e-003
 410.22300, 95.98953, 6.2938e-003
 410.72300, 96.13151, 6.3024e-003
 411.22300, 96.27363, 6.3109e-003
 411.72300, 96.41587, 6.3203e-003
 412.22300, 96.55820, 6.3291e-003
 412.72300, 96.70070, 6.3379e-003
 413.22300, 96.84345, 6.3466e-003
 413.72300, 96.98617, 6.3560e-003
 414.22300, 97.12916, 6.3646e-003
 414.72300, 97.27237, 6.3729e-003
 415.22300, 97.41598, 6.3829e-003
 415.72300, 97.55990, 6.3912e-003
 416.22300, 97.70426, 6.3995e-003
 416.72300, 97.84858, 6.4079e-003
 417.22300, 97.99295, 6.4167e-003
 417.72300, 98.13741, 6.4264e-003
 418.22300, 98.28206, 6.4349e-003
 418.72300, 98.42686, 6.4434e-003
 419.22300, 98.57200, 6.4522e-003
 419.72300, 98.71756, 6.4618e-003
 420.22300, 98.86330, 6.4707e-003
 420.72300, 99.00913, 6.4794e-003
 421.22300, 99.15538, 6.4882e-003
 421.72300, 99.30195, 6.4975e-003
 422.22300, 99.44888, 6.5062e-003
 422.72300, 99.59622, 6.5151e-003
 423.22300, 99.74400, 6.5238e-003
 423.72300, 99.89183, 6.5327e-003
 424.22300,100.03974, 6.5418e-003
 424.72300,100.18791, 6.5510e-003
 425.22300,100.33631, 6.5599e-003
 425.72300,100.48466, 6.5686e-003
 426.22300,100.63340, 6.5782e-003
 426.72300,100.78237, 6.5867e-003
 427.22300,100.93127, 6.5957e-003
 427.72300,101.08045, 6.6046e-003
 428.22300,101.22953, 6.6133e-003
 428.72300,101.37881, 6.6229e-003
 429.22300,101.52814, 6.6313e-003
 429.72300,101.67763, 6.6402e-003
 430.22300,101.82713, 6.6488e-003
 430.72300,101.97694, 6.6579e-003
 431.22300,102.12710, 6.6669e-003
 431.72300,102.27692, 6.6759e-003
 432.22300,102.42683, 6.6842e-003
 432.72300,102.57703, 6.6943e-003
 433.22300,102.72736, 6.7032e-003
 433.72300,102.87774, 6.7117e-003
 434.22300,103.02836, 6.7199e-003
 434.72300,103.17929, 6.7299e-003
 435.22300,103.33023, 6.7384e-003
 435.72300,103.48088, 6.7471e-003
 436.22300,103.63160, 6.7562e-003
 436.72300,103.78253, 6.7657e-003
 437.22300,103.93344, 6.7739e-003
 437.72300,104.08484, 6.7830e-003
 438.22300,104.23669, 6.7924e-003
 438.72300,104.38862, 6.8009e-003
 439.22300,104.54459, 6.8102e-003
 439.72300,104.70125, 6.8192e-003
 440.22300,104.85728, 6.8276e-003
 440.72300,105.01364, 6.8369e-003
 441.22300,105.16891, 6.8457e-003
 441.72300,105.32100, 6.8548e-003
 442.22300,105.47331, 6.8639e-003
 442.72300,105.62606, 6.8727e-003
 443.22300,105.77891, 6.8812e-003
 443.72300,105.93156, 6.8910e-003
 444.22300,106.08443, 6.9001e-003
 444.72300,106.23794, 6.9090e-003
 445.22300,106.39165, 6.9179e-003
 445.72300,106.54537, 6.9262e-003
 446.22300,106.69928, 6.9355e-003
 446.72300,106.85248, 6.9434e-003
 447.22300,107.00548, 6.9518e-003
 447.72300,107.15831, 6.9604e-003
 448.22300,107.31146, 6.9700e-003
 448.72300,107.46476, 6.9788e-003
 449.22300,107.61838, 6.9873e-003
 449.72300,107.77208, 6.9961e-003
 450.22300,107.92586, 7.0049e-003
 450.72300,108.07916, 7.0139e-003
 451.22300,108.23264, 7.0227e-003
 451.72300,108.38627, 7.0314e-003
 452.22300,108.53997, 7.0398e-003
 452.72300,108.69398, 7.0500e-003
 453.22300,108.84833, 7.0584e-003
 453.72300,109.00276, 7.0669e-003
 454.22300,109.15716, 7.0758e-003
 454.72300,109.31143, 7.0852e-003
 455.22300,109.46581, 7.0940e-003
 455.72300,109.62004, 7.1026e-003
 456.22300,109.77425, 7.1113e-003
 456.72300,109.92867, 7.1210e-003
 457.22300,110.08339, 7.1297e-003
 457.72300,110.23821, 7.1388e-003
 458.22300,110.39348, 7.1472e-003
 458.72300,110.54861, 7.1560e-003
 459.22300,110.70371, 7.1652e-003
 459.72300,110.85862, 7.1739e-003
 460.22300,111.01351, 7.1831e-003
 460.72300,111.16853, 7.1917e-003
 461.22300,111.32394, 7.2011e-003
 461.72300,111.47939, 7.2097e-003
 462.22300,111.63515, 7.2186e-003
 462.72300,111.79083, 7.2276e-003
 463.22300,111.94693, 7.2361e-003
 463.72300,112.10341, 7.2454e-003
 464.22300,112.25974, 7.2537e-003
 464.72300,112.41582, 7.2629e-003
 465.22300,112.57214, 7.2721e-003
 465.72300,112.72748, 7.2809e-003
 466.22300,112.88275, 7.2897e-003
 466.72300,113.03818, 7.2983e-003
 467.22300,113.19350, 7.3072e-003
 467.72300,113.34885, 7.3165e-003
 468.22300,113.50433, 7.3252e-003
 468.72300,113.66021, 7.3346e-003
 469.22300,113.81620, 7.3430e-003
 469.72300,113.97259, 7.3513e-003
 470.22300,114.12877, 7.3601e-003
 470.72300,114.28521, 7.3698e-003
 471.22300,114.44135, 7.3786e-003
 471.72300,114.59776, 7.3868e-003
 472.22300,114.75405, 7.3957e-003
 472.72300,114.91059, 7.4043e-003
 473.22300,115.06732, 7.4140e-003
 473.72300,115.22440, 7.4220e-003
 474.22300,115.38141, 7.4312e-003
 474.72300,115.53867, 7.4410e-003
 475.22300,115.69563, 7.4499e-003
 475.72300,115.85280, 7.4587e-003
 476.22300,116.01010, 7.4669e-003
 476.72300,116.16761, 7.4761e-003
 477.22300,116.32514, 7.4852e-003
 477.72300,116.48267, 7.4938e-003
 478.22300,116.64051, 7.5025e-003
 478.72300,116.79858, 7.5120e-003
 479.22300,116.95717, 7.5214e-003
 479.72300,117.11619, 7.5299e-003
 480.22300,117.27546, 7.5381e-003
 480.72300,117.43457, 7.5477e-003
 481.22300,117.59351, 7.5566e-003
 481.72300,117.75202, 7.5653e-003
 482.22300,117.91051, 7.5741e-003
 482.72300,118.06891, 7.5833e-003
 483.22300,118.22763, 7.5919e-003
 483.72300,118.38640, 7.6004e-003
 484.22300,118.54505, 7.6094e-003
 484.72300,118.70369, 7.6191e-003
 485.22300,118.86230, 7.6273e-003
 485.72300,119.02060, 7.6358e-003
 486.22300,119.17916, 7.6452e-003
 486.72300,119.33811, 7.6542e-003
 487.22300,119.49684, 7.6628e-003
 487.72300,119.65564, 7.6714e-003
 488.22300,119.81446, 7.6812e-003
 488.72300,119.97299, 7.6903e-003
 489.22300,120.13147, 7.6989e-003
 489.72300,120.29049, 7.7073e-003
 490.22300,120.44985, 7.7163e-003
 490.72300,120.60950, 7.7249e-003
 491.22300,120.76941, 7.7339e-003
 491.72300,120.92952, 7.7423e-003
 492.22300,121.08941, 7.7510e-003
 492.72300,121.24930, 7.7605e-003
 493.22300,121.40962, 7.7693e-003
 493.72300,121.56998, 7.7785e-003
 494.22300,121.72999, 7.7866e-003
 494.72300,121.89057, 7.7958e-003
 495.22300,122.05071, 7.8053e-003
 495.72300,122.21109, 7.8135e-003
 496.22300,122.37165, 7.8223e-003
 496.72300,122.53248, 7.8317e-003
 497.22300,122.69302, 7.8406e-003
 497.72300,122.85315, 7.8488e-003
 498.22300,123.01337, 7.8574e-003
 498.72300,123.17354, 7.8662e-003
 499.22300,123.33346, 7.8754e-003
 499.72300,123.49353, 7.8845e-003
 500.22300,123.65412, 7.8930e-003
 500.72300,123.81483, 7.9012e-003
 501.22300,123.97580, 7.9116e-003
 501.72300,124.13704, 7.9197e-003
 502.22300,124.29859, 7.9286e-003
 502.72300,124.46000, 7.9368e-003
 503.22300,124.62156, 7.9466e-003
 503.72300,124.78317, 7.9552e-003
 504.22300,124.94485, 7.9636e-003
 504.72300,125.10672, 7.9724e-003
 505.22300,125.26879, 7.9821e-003
 505.72300,125.43103, 7.9894e-003
 506.22300,125.59311, 7.9976e-003
 506.72300,125.75523, 8.0060e-003
 507.22300,125.91720, 8.0152e-003
 507.72300,126.07916, 8.0247e-003
 508.22300,126.24132, 8.0331e-003
 508.72300,126.40362, 8.0413e-003
 509.22300,126.56598, 8.0504e-003
 509.72300,126.72811, 8.0592e-003
 510.22300,126.89027, 8.0685e-003
 510.72300,127.05263, 8.0770e-003
 511.22300,127.21504, 8.0851e-003
 511.72300,127.37745, 8.0946e-003
 512.22300,127.53974, 8.1035e-003
 512.72300,127.70191, 8.1121e-003
 513.22300,127.86407, 8.1214e-003
 513.72300,128.02662, 8.1303e-003
 514.22300,128.18969, 8.1392e-003
 514.72300,128.35255, 8.1476e-003
 515.22300,128.51561, 8.1560e-003
 515.72300,128.67900, 8.1655e-003
 516.22300,128.84227, 8.1743e-003
 516.72300,129.00614, 8.1829e-003
 517.22300,129.17031, 8.1918e-003
 517.72300,129.33449, 8.2012e-003
 518.22300,129.49836, 8.2103e-003
 518.72300,129.66153, 8.2189e-003
 519.22300,129.82444, 8.2274e-003
 519.72300,129.98770, 8.2360e-003
 520.22300,130.15074, 8.2456e-003
 520.72300,130.31437, 8.2538e-003
 521.22300,130.47875, 8.2631e-003
 521.72300,130.64297, 8.2709e-003
 522.22300,130.80776, 8.2795e-003
 522.72300,130.97258, 8.2897e-003
 523.22300,131.13690, 8.2985e-003
 523.72300,131.30109, 8.3073e-003
 524.22300,131.46528, 8.3158e-003
 524.72300,131.62937, 8.3243e-003
 525.22300,131.79381, 8.3334e-003
 525.72300,131.95793, 8.3422e-003
 526.22300,132.12196, 8.3507e-003
 526.72300,132.28592, 8.3603e-003
 527.22300,132.44991, 8.3688e-003
 527.72300,132.61418, 8.3774e-003
 528.22300,132.77871, 8.3863e-003
 528.72300,132.94343, 8.3953e-003
 529.22300,133.10811, 8.4045e-003
 529.72300,133.27326, 8.4138e-003
 530.22300,133.43896, 8.4227e-003
 530.72300,133.60516, 8.4316e-003
 531.22300,133.77169, 8.4415e-003
 531.72300,133.93857, 8.4509e-003
 532.22300,134.10562, 8.4599e-003
 532.72300,134.27336, 8.4696e-003
 533.22300,134.44157, 8.4795e-003
 533.72300,134.61034, 8.4892e-003
 534.22300,134.77963, 8.4981e-003
 534.72300,134.94922, 8.5078e-003
 535.22300,135.11912, 8.5168e-003
 535.72300,135.28920, 8.5273e-003
 536.22300,135.45934, 8.5369e-003
 536.72300,135.62941, 8.5460e-003
 537.22300,135.79940, 8.5549e-003
 537.72300,135.96976, 8.5648e-003
 538.22300,136.13951, 8.5737e-003
 538.72300,136.30902, 8.5822e-003
 539.22300,136.47799, 8.5902e-003
 539.72300,136.64575, 8.5986e-003
 540.22300,136.81279, 8.6064e-003
 540.72300,136.97865, 8.6164e-003
 541.22300,137.14310, 8.6245e-003
 541.72300,137.30663, 8.6328e-003
 542.22300,137.46973, 8.6411e-003
 542.72300,137.63180, 8.6496e-003
 543.22300,137.79330, 8.6577e-003
 543.72300,137.95378, 8.6656e-003
 544.22300,138.11351, 8.6738e-003
 544.72300,138.27308, 8.6834e-003
 545.22300,138.43259, 8.6915e-003
 545.72300,138.59231, 8.7003e-003
 546.22300,138.75225, 8.7078e-003
 546.72300,138.91226, 8.7175e-003
 547.22300,139.07232, 8.7259e-003
 547.72300,139.23243, 8.7341e-003
 548.22300,139.39308, 8.7425e-003
 548.72300,139.55406, 8.7508e-003
 549.22300,139.71523, 8.7609e-003
 549.72300,139.87702, 8.7692e-003
 550.22300,140.03920, 8.7775e-003
 550.72300,140.20172, 8.7864e-003
 551.22300,140.36445, 8.7950e-003
 551.72300,140.52765, 8.8052e-003
 552.22300,140.69082, 8.8135e-003
 552.72300,140.85456, 8.8219e-003
 553.22300,141.01857, 8.8307e-003
 553.72300,141.18259, 8.8397e-003
 554.22300,141.34698, 8.8490e-003
 554.72300,141.51139, 8.8575e-003
 555.22300,141.67635, 8.8660e-003
 555.72300,141.84136, 8.8755e-003
 556.22300,142.00674, 8.8836e-003
 556.72300,142.17226, 8.8922e-003
 557.22300,142.33778, 8.9017e-003
 557.72300,142.50378, 8.9103e-003
 558.22300,142.66998, 8.9190e-003
 558.72300,142.83589, 8.9274e-003
 559.22300,143.00235, 8.9366e-003
 559.72300,143.16957, 8.9457e-003
 560.22300,143.33722, 8.9541e-003
 560.72300,143.50513, 8.9630e-003
 561.22300,143.67340, 8.9724e-003
 561.72300,143.84088, 8.9812e-003
 562.22300,144.00880, 8.9901e-003
 562.72300,144.17725, 8.9988e-003
 563.22300,144.34530, 9.0073e-003
 563.72300,144.51416, 9.0171e-003
 564.22300,144.68277, 9.0257e-003
 564.72300,144.85167, 9.0343e-003
 565.22300,145.02110, 9.0428e-003
 565.72300,145.19095, 9.0517e-003
 566.22300,145.36080, 9.0616e-003
 566.72300,145.53033, 9.0702e-003
 567.22300,145.70010, 9.0785e-003
 567.72300,145.87001, 9.0883e-003
 568.22300,146.04026, 9.0970e-003
 568.72300,146.21071, 9.1054e-003
 569.22300,146.38108, 9.1139e-003
 569.72300,146.55156, 9.1229e-003
 570.22300,146.72187, 9.1324e-003
 570.72300,146.89239, 9.1408e-003
 571.22300,147.06291, 9.1495e-003
 571.72300,147.23345, 9.1582e-003
 572.22300,147.40440, 9.1672e-003
 572.72300,147.57572, 9.1759e-003
 573.22300,147.74707, 9.1843e-003
 573.72300,147.91852, 9.1945e-003
 574.22300,148.08989, 9.2033e-003
 574.72300,148.26115, 9.2116e-003
 575.22300,148.43271, 9.2200e-003
 575.72300,148.60435, 9.2296e-003
 576.22300,148.77626, 9.2387e-003
 576.72300,148.94789, 9.2472e-003
 577.22300,149.11951, 9.2561e-003
 577.72300,149.29158, 9.2650e-003
 578.22300,149.46364, 9.2747e-003
 578.72300,149.63612, 9.2833e-003
 579.22300,149.80906, 9.2917e-003
 579.72300,149.98188, 9.3003e-003
 580.22300,150.15478, 9.3092e-003
 580.72300,150.32781, 9.3178e-003
 581.22300,150.50101, 9.3279e-003
 581.72300,150.67427, 9.3361e-003
 582.22300,150.84736, 9.3453e-003
 582.72300,151.02009, 9.3539e-003
 583.22300,151.19241, 9.3630e-003
 583.72300,151.36462, 9.3714e-003
 584.22300,151.53695, 9.3806e-003
 584.72300,151.70939, 9.3894e-003
 585.22300,151.88197, 9.3987e-003
 585.72300,152.05483, 9.4082e-003
 586.22300,152.22825, 9.4166e-003
 586.72300,152.40215, 9.4261e-003
 587.22300,152.57646, 9.4364e-003
 587.72300,152.75127, 9.4454e-003
 588.22300,152.92647, 9.4541e-003
 588.72300,153.10213, 9.4635e-003
 589.22300,153.27836, 9.4729e-003
 589.72300,153.45441, 9.4830e-003
 590.22300,153.63109, 9.4925e-003
 590.72300,153.80838, 9.5026e-003
 591.22300,153.98589, 9.5114e-003
 591.72300,154.16510, 9.5210e-003
 592.22300,154.34471, 9.5314e-003
 592.72300,154.52477, 9.5410e-003
 593.22300,154.70538, 9.5499e-003
 593.72300,154.88535, 9.5594e-003
 594.22300,155.06460, 9.5685e-003
 594.72300,155.24326, 9.5786e-003
 595.22300,155.42058, 9.5874e-003
 595.72300,155.59703, 9.5960e-003
 596.22300,155.77296, 9.6047e-003
 596.72300,155.94766, 9.6129e-003
 597.22300,156.12173, 9.6227e-003
 597.72300,156.29501, 9.6307e-003
 598.22300,156.46775, 9.6386e-003
 598.72300,156.63979, 9.6467e-003
 599.22300,156.81109, 9.6549e-003
 599.72300,156.98157, 9.6631e-003
 600.22300,157.15157, 9.6723e-003
 600.72300,157.32080, 9.6806e-003
 601.22300,157.48969, 9.6887e-003
 601.72300,157.65856, 9.6969e-003
 602.22300,157.82696, 9.7053e-003
 602.72300,157.99493, 9.7144e-003
 603.22300,158.16259, 9.7235e-003
 603.72300,158.33030, 9.7321e-003
 604.22300,158.49799, 9.7403e-003
 604.72300,158.66627, 9.7484e-003
 605.22300,158.83500, 9.7588e-003
 605.72300,159.00392, 9.7668e-003
 606.22300,159.17294, 9.7756e-003
 606.72300,159.34227, 9.7843e-003
 607.22300,159.51250, 9.7933e-003
 607.72300,159.68328, 9.8017e-003
 608.22300,159.85509, 9.8100e-003
 608.72300,160.02739, 9.8187e-003
 609.22300,160.19932, 9.8284e-003
 609.72300,160.37072, 9.8369e-003
 610.22300,160.54175, 9.8459e-003
 610.72300,160.71250, 9.8544e-003
 611.22300,160.88391, 9.8631e-003
 611.72300,161.05680, 9.8729e-003
 612.22300,161.23019, 9.8812e-003
 612.72300,161.40413, 9.8900e-003
 613.22300,161.57799, 9.8991e-003
 613.72300,161.75175, 9.9087e-003
 614.22300,161.92554, 9.9175e-003
 614.72300,162.09936, 9.9265e-003
 615.22300,162.27365, 9.9344e-003
 615.72300,162.44841, 9.9427e-003
 616.22300,162.62326, 9.9522e-003
 616.72300,162.79846, 9.9606e-003
 617.22300,162.97361, 9.9695e-003
 617.72300,163.14904, 9.9781e-003
 618.22300,163.32490, 9.9877e-003
 618.72300,163.50070, 9.9966e-003
 619.22300,163.67621, 1.0005e-002
 619.72300,163.85134, 1.0014e-002
 620.22300,164.02660, 1.0022e-002
 620.72300,164.20222, 1.0032e-002
 621.22300,164.37833, 1.0041e-002
 621.72300,164.55503, 1.0050e-002
 622.22300,164.73163, 1.0058e-002
 622.72300,164.90825, 1.0067e-002
 623.22300,165.08522, 1.0077e-002
 623.72300,165.26235, 1.0086e-002
 624.22300,165.44012, 1.0094e-002
 624.72300,165.61804, 1.0103e-002
 625.22300,165.79629, 1.0111e-002
 625.72300,165.97503, 1.0121e-002
 626.22300,166.15403, 1.0130e-002
 626.72300,166.33303, 1.0139e-002
 627.22300,166.51141, 1.0148e-002
 627.72300,166.68935, 1.0156e-002
 628.22300,166.86680, 1.0165e-002
 628.72300,167.04455, 1.0175e-002
 629.22300,167.22268, 1.0183e-002
 629.72300,167.40067, 1.0192e-002
 630.22300,167.57900, 1.0201e-002
 630.72300,167.75751, 1.0210e-002
 631.22300,167.93608, 1.0219e-002
 631.72300,168.11501, 1.0227e-002
 632.22300,168.29415, 1.0236e-002
 632.72300,168.47338, 1.0245e-002
 633.22300,168.65264, 1.0255e-002
 633.72300,168.83184, 1.0264e-002
 634.22300,169.01078, 1.0272e-002
 634.72300,169.18971, 1.0281e-002
 635.22300,169.36868, 1.0289e-002
 635.72300,169.54765, 1.0298e-002
 636.22300,169.72700, 1.0307e-002
 636.72300,169.90620, 1.0317e-002
 637.22300,170.08588, 1.0326e-002
 637.72300,170.26580, 1.0335e-002
 638.22300,170.44540, 1.0343e-002
 638.72300,170.62546, 1.0353e-002
 639.22300,170.80557, 1.0362e-002
 639.72300,170.98563, 1.0371e-002
 640.22300,171.16596, 1.0379e-002
 640.72300,171.34599, 1.0388e-002
 641.22300,171.52606, 1.0397e-002
 641.72300,171.70657, 1.0407e-002
 642.22300,171.88721, 1.0416e-002
 642.72300,172.06778, 1.0424e-002
 643.22300,172.24849, 1.0433e-002
 643.72300,172.42898, 1.0442e-002
 644.22300,172.60912, 1.0451e-002
 644.72300,172.78944, 1.0460e-002
 645.22300,172.96973, 1.0469e-002
 645.72300,173.15019, 1.0478e-002
 646.22300,173.33100, 1.0487e-002
 646.72300,173.51178, 1.0496e-002
 647.22300,173.69230, 1.0505e-002
 647.72300,173.87260, 1.0513e-002
 648.22300,174.05282, 1.0523e-002
 648.72300,174.23319, 1.0532e-002
 649.22300,174.41381, 1.0540e-002
 649.72300,174.59481, 1.0549e-002
 650.22300,174.77594, 1.0559e-002
 650.72300,174.95718, 1.0567e-002
 651.22300,175.13825, 1.0576e-002
 651.72300,175.31954, 1.0585e-002
 652.22300,175.50072, 1.0594e-002
 652.72300,175.68194, 1.0602e-002
 653.22300,175.86348, 1.0612e-002
 653.72300,176.04451, 1.0621e-002
 654.22300,176.22561, 1.0630e-002
 654.72300,176.40638, 1.0639e-002
 655.22300,176.58708, 1.0648e-002
 655.72300,176.76792, 1.0657e-002
 656.22300,176.94940, 1.0665e-002
 656.72300,177.13172, 1.0675e-002
 657.22300,177.31414, 1.0683e-002
 657.72300,177.49665, 1.0692e-002
 658.22300,177.67874, 1.0702e-002
 658.72300,177.86047, 1.0711e-002
 659.22300,178.04261, 1.0720e-002
 659.72300,178.22507, 1.0728e-002
 660.22300,178.40731, 1.0738e-002
 660.72300,178.58974, 1.0746e-002
 661.22300,178.77173, 1.0755e-002
 661.72300,178.95358, 1.0765e-002
 662.22300,179.13553, 1.0774e-002
 662.72300,179.31744, 1.0782e-002
 663.22300,179.50018, 1.0791e-002
 663.72300,179.68303, 1.0799e-002
 664.22300,179.86603, 1.0808e-002
 664.72300,180.04859, 1.0818e-002
 665.22300,180.23068, 1.0827e-002
 665.72300,180.41356, 1.0835e-002
 666.22300,180.59674, 1.0844e-002
 666.72300,180.78062, 1.0853e-002
 667.22300,180.96407, 1.0863e-002
 667.72300,181.14685, 1.0872e-002
 668.22300,181.32924, 1.0880e-002
 668.72300,181.51115, 1.0889e-002
 669.22300,181.69371, 1.0898e-002
 669.72300,181.87641, 1.0908e-002
 670.22300,182.05916, 1.0916e-002
 670.72300,182.24221, 1.0925e-002
 671.22300,182.42483, 1.0933e-002
 671.72300,182.60757, 1.0942e-002
 672.22300,182.79057, 1.0951e-002
 672.72300,182.97386, 1.0961e-002
 673.22300,183.15755, 1.0970e-002
 673.72300,183.34145, 1.0979e-002
 674.22300,183.52555, 1.0987e-002
 674.72300,183.71009, 1.0997e-002
 675.22300,183.89467, 1.1006e-002
 675.72300,184.07984, 1.1015e-002
 676.22300,184.26541, 1.1024e-002
 676.72300,184.45089, 1.1034e-002
 677.22300,184.63693, 1.1044e-002
 677.72300,184.82365, 1.1053e-002
 678.22300,185.01115, 1.1062e-002
 678.72300,185.19941, 1.1072e-002
 679.22300,185.38850, 1.1083e-002
 679.72300,185.57797, 1.1092e-002
 680.22300,185.76784, 1.1101e-002
 680.72300,185.95828, 1.1111e-002
 681.22300,186.14851, 1.1120e-002
 681.72300,186.33922, 1.1130e-002
 682.22300,186.52972, 1.1139e-002
 682.72300,186.71987, 1.1148e-002
 683.22300,186.90984, 1.1158e-002
 683.72300,187.09916, 1.1167e-002
 684.22300,187.28791, 1.1175e-002
 684.72300,187.47580, 1.1184e-002
 685.22300,187.66250, 1.1192e-002
 685.72300,187.84779, 1.1202e-002
 686.22300,188.03178, 1.1210e-002
 686.72300,188.21494, 1.1219e-002
 687.22300,188.39784, 1.1227e-002
 687.72300,188.57999, 1.1236e-002
 688.22300,188.76216, 1.1245e-002
 688.72300,188.94412, 1.1253e-002
 689.22300,189.12542, 1.1261e-002
 689.72300,189.30652, 1.1271e-002
 690.22300,189.48662, 1.1280e-002
 690.72300,189.66667, 1.1288e-002
 691.22300,189.84690, 1.1297e-002
 691.72300,190.02805, 1.1305e-002
 692.22300,190.21063, 1.1315e-002
 692.72300,190.39370, 1.1323e-002
 693.22300,190.57741, 1.1332e-002
 693.72300,190.76125, 1.1341e-002
 694.22300,190.94519, 1.1351e-002
 694.72300,191.12976, 1.1360e-002
 695.22300,191.31465, 1.1369e-002
 695.72300,191.50024, 1.1378e-002
 696.22300,191.68641, 1.1386e-002
 696.72300,191.87304, 1.1396e-002
 697.22300,192.05995, 1.1405e-002
 697.72300,192.24678, 1.1413e-002
 698.22300,192.43353, 1.1422e-002
 698.72300,192.62017, 1.1431e-002
 699.22300,192.80713, 1.1441e-002
 699.72300,192.99435, 1.1450e-002
 700.22300,193.18206, 1.1458e-002
 700.72300,193.36982, 1.1467e-002
 701.22300,193.55736, 1.1476e-002
 701.72300,193.74496, 1.1485e-002
 702.22300,193.93268, 1.1494e-002
 702.72300,194.12079, 1.1503e-002
 703.22300,194.30950, 1.1512e-002
 703.72300,194.49867, 1.1522e-002
 704.22300,194.68780, 1.1530e-002
 704.72300,194.87683, 1.1539e-002
 705.22300,195.06623, 1.1548e-002
 705.72300,195.25590, 1.1557e-002
 706.22300,195.44572, 1.1566e-002
 706.72300,195.63542, 1.1575e-002
 707.22300,195.82535, 1.1584e-002
 707.72300,196.01492, 1.1593e-002
 708.22300,196.20531, 1.1602e-002
 708.72300,196.39536, 1.1611e-002
 709.22300,196.58592, 1.1620e-002
 709.72300,196.77641, 1.1629e-002
 710.22300,196.96696, 1.1638e-002
 710.72300,197.15787, 1.1647e-002
 711.22300,197.34790, 1.1656e-002
 711.72300,197.53765, 1.1665e-002
 712.22300,197.72762, 1.1673e-002
 712.72300,197.91810, 1.1682e-002
 713.22300,198.10910, 1.1692e-002
 713.72300,198.30094, 1.1700e-002
 714.22300,198.49278, 1.1709e-002
 714.72300,198.68360, 1.1718e-002
 715.22300,198.87428, 1.1727e-002
 715.72300,199.06410, 1.1735e-002
 716.22300,199.25350, 1.1745e-002
 716.72300,199.44376, 1.1754e-002
 717.22300,199.63413, 1.1762e-002
 717.72300,199.82449, 1.1772e-002
 718.22300,200.01505, 1.1781e-002
 718.72300,200.20506, 1.1790e-002
 719.22300,200.39506, 1.1798e-002
 719.72300,200.58558, 1.1806e-002
 720.22300,200.77603, 1.1816e-002
 720.72300,200.96763, 1.1826e-002
 721.22300,201.15946, 1.1834e-002
 721.72300,201.35073, 1.1843e-002
 722.22300,201.54167, 1.1852e-002
 722.72300,201.73243, 1.1861e-002
 723.22300,201.92341, 1.1870e-002
 723.72300,202.11538, 1.1879e-002
 724.22300,202.30780, 1.1888e-002
 724.72300,202.50063, 1.1898e-002
 725.22300,202.69291, 1.1907e-002
 725.72300,202.88463, 1.1915e-002
 726.22300,203.07644, 1.1924e-002
 726.72300,203.26838, 1.1934e-002
 727.22300,203.46068, 1.1942e-002
 727.72300,203.65249, 1.1951e-002
 728.22300,203.84360, 1.1959e-002
 728.72300,204.03438, 1.1970e-002
 729.22300,204.22420, 1.1979e-002
 729.72300,204.41490, 1.1987e-002
 730.22300,204.60566, 1.1996e-002
 730.72300,204.79675, 1.2005e-002
 731.22300,204.98860, 1.2014e-002
 731.72300,205.18011, 1.2023e-002
 732.22300,205.37149, 1.2031e-002
 732.72300,205.56295, 1.2041e-002
 733.22300,205.75442, 1.2050e-002
 733.72300,205.94576, 1.2059e-002
 734.22300,206.13697, 1.2068e-002
 734.72300,206.32845, 1.2077e-002
 735.22300,206.51960, 1.2086e-002
 735.72300,206.71103, 1.2095e-002
 736.22300,206.90305, 1.2104e-002
 736.72300,207.09493, 1.2112e-002
 737.22300,207.28722, 1.2122e-002
 737.72300,207.47964, 1.2131e-002
 738.22300,207.67172, 1.2141e-002
 738.72300,207.86378, 1.2149e-002
 739.22300,208.05682, 1.2158e-002
 739.72300,208.24946, 1.2167e-002
 740.22300,208.44238, 1.2177e-002
 740.72300,208.63452, 1.2186e-002
 741.22300,208.82622, 1.2194e-002
 741.72300,209.01846, 1.2203e-002
 742.22300,209.21081, 1.2213e-002
 742.72300,209.40344, 1.2221e-002
 743.22300,209.59591, 1.2230e-002
 743.72300,209.78791, 1.2239e-002
 744.22300,209.98009, 1.2248e-002
 744.72300,210.17186, 1.2258e-002
 745.22300,210.36371, 1.2266e-002
 745.72300,210.55568, 1.2276e-002
 746.22300,210.74708, 1.2284e-002
 746.72300,210.93866, 1.2294e-002
 747.22300,211.12985, 1.2303e-002
 747.72300,211.32165, 1.2312e-002
 748.22300,211.51406, 1.2321e-002
 748.72300,211.70740, 1.2330e-002
 749.22300,211.90171, 1.2339e-002
 749.72300,212.09686, 1.2349e-002
 750.22300,212.29244, 1.2358e-002
 750.72300,212.48887, 1.2369e-002
 751.22300,212.68496, 1.2378e-002
 751.72300,212.88153, 1.2387e-002
 752.22300,213.07877, 1.2396e-002
 752.72300,213.27679, 1.2406e-002
 753.22300,213.47616, 1.2416e-002
 753.72300,213.67618, 1.2425e-002
 754.22300,213.87715, 1.2435e-002
 754.72300,214.07760, 1.2444e-002
 755.22300,214.27718, 1.2453e-002
 755.72300,214.47583, 1.2463e-002
 756.22300,214.67281, 1.2472e-002
 756.72300,214.86822, 1.2480e-002
 757.22300,215.06219, 1.2489e-002
 757.72300,215.25490, 1.2497e-002
 758.22300,215.44675, 1.2507e-002
 758.72300,215.63729, 1.2515e-002
 759.22300,215.82720, 1.2524e-002
 759.72300,216.01611, 1.2532e-002
 760.22300,216.20412, 1.2541e-002
 760.72300,216.39167, 1.2550e-002
 761.22300,216.57844, 1.2559e-002
 761.72300,216.76545, 1.2568e-002
 762.22300,216.95253, 1.2577e-002
 762.72300,217.13976, 1.2586e-002
 763.22300,217.32773, 1.2594e-002
 763.72300,217.51559, 1.2603e-002
 764.22300,217.70361, 1.2611e-002
 764.72300,217.89198, 1.2622e-002
 765.22300,218.08027, 1.2630e-002
 765.72300,218.26888, 1.2639e-002
 766.22300,218.45778, 1.2648e-002
 766.72300,218.64656, 1.2657e-002
 767.22300,218.83507, 1.2666e-002
 767.72300,219.02396, 1.2675e-002
 768.22300,219.21312, 1.2684e-002
 768.72300,219.40324, 1.2692e-002
 769.22300,219.59389, 1.2702e-002
 769.72300,219.78471, 1.2711e-002
 770.22300,219.97566, 1.2719e-002
 770.72300,220.16671, 1.2728e-002
 771.22300,220.35814, 1.2737e-002
 771.72300,220.54996, 1.2747e-002
 772.22300,220.74209, 1.2756e-002
 772.72300,220.93365, 1.2764e-002
 773.22300,221.12563, 1.2773e-002
 773.72300,221.31729, 1.2782e-002
 774.22300,221.50893, 1.2792e-002
 774.72300,221.70102, 1.2800e-002
 775.22300,221.89315, 1.2810e-002
 775.72300,222.08578, 1.2818e-002
 776.22300,222.27913, 1.2828e-002
 776.72300,222.47282, 1.2836e-002
 777.22300,222.66634, 1.2845e-002
 777.72300,222.86025, 1.2854e-002
 778.22300,223.05380, 1.2864e-002
 778.72300,223.24786, 1.2873e-002
 779.22300,223.44192, 1.2882e-002
 779.72300,223.63638, 1.2890e-002
 780.22300,223.83133, 1.2900e-002
 780.72300,224.02660, 1.2909e-002
 781.22300,224.22233, 1.2918e-002
 781.72300,224.41803, 1.2927e-002
 782.22300,224.61459, 1.2936e-002
 782.72300,224.81268, 1.2946e-002
 783.22300,225.01313, 1.2955e-002
 783.72300,225.21666, 1.2965e-002
 784.22300,225.42210, 1.2974e-002
 784.72300,225.62825, 1.2984e-002
 785.22300,225.83485, 1.2993e-002
 785.72300,226.04131, 1.3002e-002
 786.22300,226.24811, 1.3010e-002
 786.72300,226.45500, 1.3020e-002
 787.22300,226.66215, 1.3029e-002
 787.72300,226.86885, 1.3038e-002
 788.22300,227.07588, 1.3048e-002
 788.72300,227.28387, 1.3057e-002
 789.22300,227.49315, 1.3067e-002
 789.72300,227.70630, 1.3077e-002
 790.22300,227.92325, 1.3086e-002
 790.72300,228.14450, 1.3097e-002
 791.22300,228.36808, 1.3107e-002
 791.72300,228.59079, 1.3116e-002
 792.22300,228.81053, 1.3125e-002
 792.72300,229.02623, 1.3134e-002
 793.22300,229.23806, 1.3142e-002
 793.72300,229.44747, 1.3152e-002
 794.22300,229.65477, 1.3161e-002
 794.72300,229.86132, 1.3169e-002
 795.22300,230.06729, 1.3179e-002
 795.72300,230.27329, 1.3188e-002
 796.22300,230.48055, 1.3197e-002
 796.72300,230.68947, 1.3207e-002
 797.22300,230.90143, 1.3216e-002
 797.72300,231.11666, 1.3225e-002
 798.22300,231.33547, 1.3235e-002
 798.72300,231.55785, 1.3246e-002
 799.22300,231.78245, 1.3255e-002
 799.72300,232.00920, 1.3264e-002
 800.22300,232.23584, 1.3274e-002
 800.72300,232.46200, 1.3283e-002
 801.22300,232.68551, 1.3291e-002
 801.72300,232.90721, 1.3301e-002
 802.22300,233.12579, 1.3311e-002
 802.72300,233.34316, 1.3320e-002
 803.22300,233.55945, 1.3329e-002
 803.72300,233.77608, 1.3337e-002
 804.22300,233.99206, 1.3347e-002
 804.72300,234.20704, 1.3356e-002
 805.22300,234.42125, 1.3365e-002
 805.72300,234.63383, 1.3374e-002
 806.22300,234.84509, 1.3383e-002
 806.72300,235.05439, 1.3391e-002
 807.22300,235.26222, 1.3401e-002
 807.72300,235.46841, 1.3410e-002
 808.22300,235.67431, 1.3418e-002
 808.72300,235.87871, 1.3427e-002
 809.22300,236.08171, 1.3435e-002
 809.72300,236.28344, 1.3443e-002
 810.22300,236.48492, 1.3454e-002
 810.72300,236.68641, 1.3463e-002
 811.22300,236.88875, 1.3472e-002
 811.72300,237.09216, 1.3481e-002
 812.22300,237.29614, 1.3491e-002
 812.72300,237.50160, 1.3501e-002
 813.22300,237.70823, 1.3510e-002
 813.72300,237.91588, 1.3519e-002
 814.22300,238.12449, 1.3529e-002
 814.72300,238.33332, 1.3540e-002
 815.22300,238.54279, 1.3549e-002
 815.72300,238.75224, 1.3557e-002
 816.22300,238.96130, 1.3567e-002
 816.72300,239.16956, 1.3576e-002
 817.22300,239.37689, 1.3584e-002
 817.72300,239.58179, 1.3594e-002
 818.22300,239.78428, 1.3602e-002
 818.72300,239.98451, 1.3611e-002
 819.22300,240.18294, 1.3619e-002
 819.72300,240.38038, 1.3627e-002
 820.22300,240.57694, 1.3637e-002
 820.72300,240.77236, 1.3645e-002
 821.22300,240.96706, 1.3654e-002
 821.72300,241.16148, 1.3662e-002
 822.22300,241.35503, 1.3670e-002
 822.72300,241.54824, 1.3680e-002
 823.22300,241.74085, 1.3688e-002
 823.72300,241.93356, 1.3697e-002
 824.22300,242.12654, 1.3705e-002
 824.72300,242.31881, 1.3713e-002
 825.22300,242.51097, 1.3724e-002
 825.72300,242.70198, 1.3732e-002
 826.22300,242.89260, 1.3741e-002
 826.72300,243.08299, 1.3749e-002
 827.22300,243.27318, 1.3758e-002
 827.72300,243.46396, 1.3767e-002
 828.22300,243.65511, 1.3776e-002
 828.72300,243.84714, 1.3784e-002
 829.22300,244.03945, 1.3794e-002
 829.72300,244.23168, 1.3803e-002
 830.22300,244.42370, 1.3812e-002
 830.72300,244.61502, 1.3820e-002
 831.22300,244.80601, 1.3828e-002
 831.72300,244.99657, 1.3837e-002
 832.22300,245.18674, 1.3846e-002
 832.72300,245.37690, 1.3855e-002
 833.22300,245.56714, 1.3864e-002
 833.72300,245.75716, 1.3872e-002
 834.22300,245.94696, 1.3881e-002
 834.72300,246.13740, 1.3889e-002
 835.22300,246.32817, 1.3899e-002
 835.72300,246.51913, 1.3908e-002
 836.22300,246.71065, 1.3917e-002
 836.72300,246.90137, 1.3926e-002
 837.22300,247.09210, 1.3935e-002
 837.72300,247.28317, 1.3943e-002
 838.22300,247.47477, 1.3952e-002
 838.72300,247.66761, 1.3961e-002
 839.22300,247.86077, 1.3971e-002
 839.72300,248.05339, 1.3979e-002
 840.22300,248.24525, 1.3988e-002
 840.72300,248.43687, 1.3997e-002
 841.22300,248.62846, 1.4005e-002
 841.72300,248.82026, 1.4015e-002
 842.22300,249.01227, 1.4024e-002
 842.72300,249.20381, 1.4033e-002
 843.22300,249.39503, 1.4041e-002
 843.72300,249.58606, 1.4050e-002
 844.22300,249.77659, 1.4059e-002
 844.72300,249.96757, 1.4068e-002
 845.22300,250.15904, 1.4078e-002
 845.72300,250.35061, 1.4086e-002
 846.22300,250.54233, 1.4095e-002
 846.72300,250.73341, 1.4103e-002
 847.22300,250.92468, 1.4112e-002
 847.72300,251.11570, 1.4122e-002
 848.22300,251.30740, 1.4131e-002
 848.72300,251.49952, 1.4140e-002
 849.22300,251.69150, 1.4148e-002
 849.72300,251.88353, 1.4157e-002
 850.22300,252.07517, 1.4166e-002
 850.72300,252.26696, 1.4176e-002
 851.22300,252.45896, 1.4185e-002
 851.72300,252.65139, 1.4193e-002
 852.22300,252.84443, 1.4202e-002
 852.72300,253.03705, 1.4211e-002
 853.22300,253.23003, 1.4220e-002
 853.72300,253.42283, 1.4230e-002
 854.22300,253.61521, 1.4239e-002
 854.72300,253.80780, 1.4248e-002
 855.22300,253.99973, 1.4256e-002
 855.72300,254.19037, 1.4265e-002
 856.22300,254.38037, 1.4275e-002
 856.72300,254.56826, 1.4283e-002
 857.22300,254.75421, 1.4292e-002
 857.72300,254.93990, 1.4300e-002
 858.22300,255.12566, 1.4309e-002
 858.72300,255.31292, 1.4317e-002
 859.22300,255.50233, 1.4326e-002
 859.72300,255.69341, 1.4337e-002
 860.22300,255.88678, 1.4347e-002
 860.72300,256.08227, 1.4355e-002
 861.22300,256.27915, 1.4365e-002
 861.72300,256.47734, 1.4374e-002
 862.22300,256.67603, 1.4384e-002
 862.72300,256.87394, 1.4393e-002
 863.22300,257.07119, 1.4403e-002
 863.72300,257.26723, 1.4411e-002
 864.22300,257.46197, 1.4420e-002
 864.72300,257.65605, 1.4429e-002
 865.22300,257.84954, 1.4437e-002
 865.72300,258.04288, 1.4447e-002
 866.22300,258.23739, 1.4456e-002
 866.72300,258.43212, 1.4465e-002
 867.22300,258.62680, 1.4474e-002
 867.72300,258.82224, 1.4484e-002
 868.22300,259.01860, 1.4493e-002
 868.72300,259.21674, 1.4502e-002
 869.22300,259.41714, 1.4511e-002
 869.72300,259.61908, 1.4522e-002
 870.22300,259.82394, 1.4532e-002
 870.72300,260.03216, 1.4542e-002
 871.22300,260.24425, 1.4552e-002
 871.72300,260.45990, 1.4562e-002
 872.22300,260.67813, 1.4573e-002
 872.72300,260.89753, 1.4584e-002
 873.22300,261.11776, 1.4594e-002
 873.72300,261.33740, 1.4603e-002
 874.22300,261.55636, 1.4612e-002
 874.72300,261.77287, 1.4622e-002
 875.22300,261.98634, 1.4631e-002
 875.72300,262.19714, 1.4641e-002
 876.22300,262.40364, 1.4650e-002
 876.72300,262.60718, 1.4658e-002
 877.22300,262.80821, 1.4666e-002
 877.72300,263.00800, 1.4675e-002
 878.22300,263.20717, 1.4684e-002
 878.72300,263.40545, 1.4692e-002
 879.22300,263.60234, 1.4701e-002
 879.72300,263.79743, 1.4710e-002
 880.22300,263.99087, 1.4719e-002
 880.72300,264.18321, 1.4727e-002
 881.22300,264.37498, 1.4735e-002
 881.72300,264.56647, 1.4744e-002
 882.22300,264.75814, 1.4755e-002
 882.72300,264.95031, 1.4764e-002
 883.22300,265.14334, 1.4773e-002
 883.72300,265.33736, 1.4781e-002
 884.22300,265.53200, 1.4790e-002
 884.72300,265.72639, 1.4799e-002
 885.22300,265.92114, 1.4808e-002
 885.72300,266.11553, 1.4818e-002
 886.22300,266.30936, 1.4827e-002
 886.72300,266.50273, 1.4835e-002
 887.22300,266.69413, 1.4844e-002
 887.72300,266.88580, 1.4853e-002
 888.22300,267.07804, 1.4862e-002
 888.72300,267.27186, 1.4872e-002
 889.22300,267.46662, 1.4881e-002
 889.72300,267.66257, 1.4890e-002
 890.22300,267.85925, 1.4899e-002
 890.72300,268.05627, 1.4908e-002
 891.22300,268.25403, 1.4917e-002
 891.72300,268.45103, 1.4925e-002
 892.22300,268.64770, 1.4933e-002
 892.72300,268.84388, 1.4943e-002
 893.22300,269.03951, 1.4954e-002
 893.72300,269.23537, 1.4962e-002
 894.22300,269.43141, 1.4971e-002
 894.72300,269.62787, 1.4980e-002
 895.22300,269.82494, 1.4989e-002
 895.72300,270.02241, 1.4998e-002
 896.22300,270.22034, 1.5007e-002
 896.72300,270.41953, 1.5016e-002
 897.22300,270.61958, 1.5026e-002
 897.72300,270.82030, 1.5035e-002
 898.22300,271.02097, 1.5043e-002
 898.72300,271.22068, 1.5052e-002
 899.22300,271.42003, 1.5061e-002
 899.72300,271.61893, 1.5070e-002
 900.22300,271.81836, 1.5080e-002
 900.72300,272.01821, 1.5090e-002
 901.22300,272.21958, 1.5098e-002
 901.72300,272.42253, 1.5107e-002
 902.22300,272.62684, 1.5116e-002
 902.72300,272.83128, 1.5125e-002
 903.22300,273.03581, 1.5136e-002
 903.72300,273.24036, 1.5145e-002
 904.22300,273.44620, 1.5154e-002
 904.72300,273.65400, 1.5163e-002
 905.22300,273.86246, 1.5173e-002
 905.72300,274.07167, 1.5182e-002
 906.22300,274.28022, 1.5190e-002
 906.72300,274.48867, 1.5200e-002
 907.22300,274.69759, 1.5209e-002
 907.72300,274.90872, 1.5218e-002
 908.22300,275.12216, 1.5229e-002
 908.72300,275.33798, 1.5238e-002
 909.22300,275.55652, 1.5247e-002
 909.72300,275.77733, 1.5256e-002
 910.22300,276.00160, 1.5267e-002
 910.72300,276.22832, 1.5277e-002
 911.22300,276.45896, 1.5287e-002
 911.72300,276.69494, 1.5297e-002
 912.22300,276.94043, 1.5307e-002
 912.72300,277.19875, 1.5319e-002
 913.22300,277.47288, 1.5330e-002
 913.72300,277.76218, 1.5341e-002
 914.22300,278.06344, 1.5352e-002
 914.72300,278.37207, 1.5362e-002
 915.22300,278.67540, 1.5373e-002
 915.72300,278.95444, 1.5384e-002
 916.22300,279.20592, 1.5391e-002
 916.72300,279.43803, 1.5398e-002
 917.22300,279.65834, 1.5406e-002
 917.72300,279.87036, 1.5414e-002
 918.22300,280.07380, 1.5422e-002
 918.72300,280.26785, 1.5430e-002
 919.22300,280.45442, 1.5437e-002
 919.72300,280.63548, 1.5444e-002
 920.22300,280.81385, 1.5454e-002
 920.72300,280.99233, 1.5463e-002
 921.22300,281.17253, 1.5472e-002
 921.72300,281.35644, 1.5482e-002
 922.22300,281.54549, 1.5492e-002
 922.72300,281.74060, 1.5503e-002
 923.22300,281.94287, 1.5513e-002
 923.72300,282.15215, 1.5524e-002
 924.22300,282.36897, 1.5534e-002
 924.72300,282.59000, 1.5544e-002
 925.22300,282.81256, 1.5556e-002
 925.72300,283.03411, 1.5565e-002
 926.22300,283.25087, 1.5574e-002
 926.72300,283.46308, 1.5581e-002
 927.22300,283.66981, 1.5590e-002
 927.72300,283.87350, 1.5598e-002
 928.22300,284.07351, 1.5606e-002
 928.72300,284.27061, 1.5614e-002
 929.22300,284.46396, 1.5623e-002
 929.72300,284.65436, 1.5630e-002
 930.22300,284.84276, 1.5640e-002
 930.72300,285.02964, 1.5648e-002
 931.22300,285.21700, 1.5657e-002
 931.72300,285.40565, 1.5665e-002
 932.22300,285.59658, 1.5674e-002
 932.72300,285.78936, 1.5683e-002
 933.22300,285.98330, 1.5693e-002
 933.72300,286.17808, 1.5702e-002
 934.22300,286.37321, 1.5711e-002
 934.72300,286.56773, 1.5719e-002
 935.22300,286.76182, 1.5730e-002
 935.72300,286.95488, 1.5738e-002
 936.22300,287.14629, 1.5746e-002
 936.72300,287.33590, 1.5754e-002
 937.22300,287.52320, 1.5762e-002
 937.72300,287.70863, 1.5770e-002
 938.22300,287.89353, 1.5780e-002
 938.72300,288.07908, 1.5789e-002
 939.22300,288.26659, 1.5797e-002
 939.72300,288.45684, 1.5806e-002
 940.22300,288.64914, 1.5815e-002
 940.72300,288.84352, 1.5825e-002
 941.22300,289.03863, 1.5834e-002
 941.72300,289.23305, 1.5843e-002
 942.22300,289.42600, 1.5853e-002
 942.72300,289.61693, 1.5860e-002
 943.22300,289.80666, 1.5869e-002
 943.72300,289.99572, 1.5880e-002
 944.22300,290.18468, 1.5889e-002
 944.72300,290.37409, 1.5897e-002
 945.22300,290.56278, 1.5906e-002
 945.72300,290.75110, 1.5914e-002
 946.22300,290.93916, 1.5922e-002
 946.72300,291.12643, 1.5931e-002
 947.22300,291.31491, 1.5940e-002
 947.72300,291.50417, 1.5949e-002
 948.22300,291.69491, 1.5958e-002
 948.72300,291.88759, 1.5966e-002
 949.22300,292.08162, 1.5977e-002
 949.72300,292.27698, 1.5986e-002
 950.22300,292.47229, 1.5995e-002
 950.72300,292.66723, 1.6003e-002
 951.22300,292.86149, 1.6012e-002
 951.72300,293.05378, 1.6020e-002
 952.22300,293.24445, 1.6030e-002
 952.72300,293.43414, 1.6039e-002
 953.22300,293.62373, 1.6047e-002
 953.72300,293.81391, 1.6056e-002
 954.22300,294.00400, 1.6065e-002
 954.72300,294.19301, 1.6073e-002
 955.22300,294.38084, 1.6082e-002
 955.72300,294.56626, 1.6092e-002
 956.22300,294.74942, 1.6100e-002
 956.72300,294.93124, 1.6108e-002
 957.22300,295.11164, 1.6117e-002
 957.72300,295.29183, 1.6125e-002
 958.22300,295.47305, 1.6134e-002
 958.72300,295.65575, 1.6143e-002
 959.22300,295.84146, 1.6152e-002
 959.72300,296.03057, 1.6163e-002
 960.22300,296.22281, 1.6172e-002
 960.72300,296.41775, 1.6181e-002
 961.22300,296.61512, 1.6191e-002
 961.72300,296.81403, 1.6200e-002
 962.22300,297.01154, 1.6208e-002
 962.72300,297.20666, 1.6219e-002
 963.22300,297.39903, 1.6227e-002
 963.72300,297.58947, 1.6235e-002
 964.22300,297.77906, 1.6243e-002
 964.72300,297.96843, 1.6253e-002
 965.22300,298.15812, 1.6262e-002
 965.72300,298.34759, 1.6271e-002
 966.22300,298.53615, 1.6281e-002
 966.72300,298.72421, 1.6289e-002
 967.22300,298.91222, 1.6298e-002
 967.72300,299.10072, 1.6306e-002
 968.22300,299.28999, 1.6317e-002
 968.72300,299.48044, 1.6327e-002
 969.22300,299.67187, 1.6336e-002
 969.72300,299.86401, 1.6345e-002
 970.22300,300.05581, 1.6355e-002
 970.72300,300.24690, 1.6363e-002
 971.22300,300.43652, 1.6372e-002
 971.72300,300.62494, 1.6382e-002
 972.22300,300.81211, 1.6392e-002
 972.72300,300.99868, 1.6401e-002
 973.22300,301.18585, 1.6410e-002
 973.72300,301.37307, 1.6419e-002
 974.22300,301.56014, 1.6428e-002
 974.72300,301.74642, 1.6438e-002
 975.22300,301.93250, 1.6448e-002
 975.72300,302.11804, 1.6457e-002
 976.22300,302.30175, 1.6466e-002
 976.72300,302.48442, 1.6474e-002
 977.22300,302.66560, 1.6483e-002
 977.72300,302.84591, 1.6493e-002
 978.22300,303.02603, 1.6501e-002
 978.72300,303.20535, 1.6510e-002
 979.22300,303.38471, 1.6519e-002
 979.72300,303.56406, 1.6528e-002
 980.22300,303.74352, 1.6538e-002
 980.72300,303.92267, 1.6547e-002
 981.22300,304.10064, 1.6556e-002
 981.72300,304.27717, 1.6564e-002
 982.22300,304.45216, 1.6572e-002
 982.72300,304.62595, 1.6581e-002
 983.22300,304.79945, 1.6591e-002
 983.72300,304.97336, 1.6600e-002
 984.22300,305.14779, 1.6609e-002
 984.72300,305.32322, 1.6618e-002
 985.22300,305.49916, 1.6627e-002
 985.72300,305.67542, 1.6635e-002
 986.22300,305.85183, 1.6644e-002
 986.72300,306.02775, 1.6653e-002
 987.22300,306.20361, 1.6663e-002
 987.72300,306.37975, 1.6671e-002
 988.22300,306.55640, 1.6680e-002
 988.72300,306.73445, 1.6689e-002
 989.22300,306.91343, 1.6698e-002
 989.72300,307.09322, 1.6709e-002
 990.22300,307.27401, 1.6718e-002
 990.72300,307.45576, 1.6727e-002
 991.22300,307.63928, 1.6736e-002
 991.72300,307.82444, 1.6745e-002
 992.22300,308.01128, 1.6754e-002
 992.72300,308.19938, 1.6764e-002
 993.22300,308.38789, 1.6775e-002
 993.72300,308.57656, 1.6784e-002
 994.22300,308.76538, 1.6793e-002
 994.72300,308.95339, 1.6802e-002
 995.22300,309.14123, 1.6811e-002
 995.72300,309.32850, 1.6820e-002
 996.22300,309.51524, 1.6829e-002
 996.72300,309.70199, 1.6838e-002
 997.22300,309.88900, 1.6847e-002
 997.72300,310.07595, 1.6856e-002
 998.22300,310.26384, 1.6865e-002
 998.72300,310.45207, 1.6875e-002
 999.22300,310.64098, 1.6885e-002
 999.72300,310.83137, 1.6893e-002
1000.22300,311.02142, 1.6903e-002
1000.72300,311.21318, 1.6912e-002
1001.22300,311.40522, 1.6923e-002
1001.72300,311.59744, 1.6931e-002
1002.22300,311.78990, 1.6940e-002
1002.72300,311.98122, 1.6949e-002
1003.22300,312.17128, 1.6957e-002
1003.72300,312.36159, 1.6966e-002
1004.22300,312.55193, 1.6977e-002
1004.72300,312.74402, 1.6986e-002
1005.22300,312.93765, 1.6995e-002
1005.72300,313.13130, 1.7005e-002
1006.22300,313.32617, 1.7013e-002
1006.72300,313.51998, 1.7023e-002
1007.22300,313.71243, 1.7033e-002
1007.72300,313.90300, 1.7041e-002
1008.22300,314.09151, 1.7051e-002
1008.72300,314.27901, 1.7059e-002
1009.22300,314.46556, 1.7067e-002
1009.72300,314.65186, 1.7077e-002
1010.22300,314.83832, 1.7086e-002
1010.72300,315.02464, 1.7095e-002
1011.22300,315.21194, 1.7103e-002
1011.72300,315.39919, 1.7114e-002
1012.22300,315.58598, 1.7123e-002
1012.72300,315.77155, 1.7132e-002
1013.22300,315.95563, 1.7140e-002
1013.72300,316.13809, 1.7149e-002
1014.22300,316.31909, 1.7157e-002
1014.72300,316.49938, 1.7167e-002
1015.22300,316.67916, 1.7176e-002
1015.72300,316.86012, 1.7185e-002
1016.22300,317.04315, 1.7194e-002
1016.72300,317.22862, 1.7203e-002
1017.22300,317.41702, 1.7214e-002
1017.72300,317.60711, 1.7223e-002
1018.22300,317.79896, 1.7232e-002
1018.72300,317.99035, 1.7241e-002
1019.22300,318.18012, 1.7249e-002
1019.72300,318.36734, 1.7260e-002
1020.22300,318.55317, 1.7269e-002
1020.72300,318.73903, 1.7277e-002
1021.22300,318.92480, 1.7286e-002
1021.72300,319.11159, 1.7295e-002
1022.22300,319.29674, 1.7305e-002
1022.72300,319.48125, 1.7314e-002
1023.22300,319.66513, 1.7324e-002
1023.72300,319.84986, 1.7334e-002
1024.22300,320.03695, 1.7343e-002
1024.72300,320.22674, 1.7352e-002
1025.22300,320.41810, 1.7362e-002
1025.72300,320.60906, 1.7371e-002
1026.22300,320.79732, 1.7381e-002
1026.72300,320.98224, 1.7390e-002
1027.22300,321.16410, 1.7398e-002
1027.72300,321.34301, 1.7406e-002
1028.22300,321.52042, 1.7415e-002
1028.72300,321.69738, 1.7423e-002
1029.22300,321.87561, 1.7434e-002
1029.72300,322.05633, 1.7443e-002
1030.22300,322.24000, 1.7452e-002
1030.72300,322.42773, 1.7462e-002
1031.22300,322.61893, 1.7472e-002
1031.72300,322.81318, 1.7482e-002
1032.22300,323.00941, 1.7491e-002
1032.72300,323.20537, 1.7500e-002
1033.22300,323.40046, 1.7511e-002
1033.72300,323.59344, 1.7519e-002
1034.22300,323.78294, 1.7528e-002
1034.72300,323.97052, 1.7536e-002
1035.22300,324.15636, 1.7544e-002
1035.72300,324.34267, 1.7552e-002
1036.22300,324.52924, 1.7564e-002
1036.72300,324.71524, 1.7572e-002
1037.22300,324.90234, 1.7581e-002
1037.72300,325.08926, 1.7590e-002
1038.22300,325.27720, 1.7600e-002
1038.72300,325.46774, 1.7609e-002
1039.22300,325.66034, 1.7618e-002
1039.72300,325.85408, 1.7629e-002
1040.22300,326.05168, 1.7637e-002
1040.72300,326.25183, 1.7647e-002
1041.22300,326.45900, 1.7658e-002
1041.72300,326.67186, 1.7668e-002
1042.22300,326.88696, 1.7678e-002
1042.72300,327.09991, 1.7686e-002
1043.22300,327.30467, 1.7696e-002
1043.72300,327.49455, 1.7704e-002
1044.22300,327.66819, 1.7709e-002
1044.72300,327.82947, 1.7715e-002
1045.22300,327.98303, 1.7722e-002
1045.72300,328.13357, 1.7729e-002
1046.22300,328.28434, 1.7737e-002
1046.72300,328.43825, 1.7747e-002
1047.22300,328.59621, 1.7757e-002
1047.72300,328.75914, 1.7767e-002
1048.22300,328.92844, 1.7778e-002
1048.72300,329.10337, 1.7788e-002
1049.22300,329.28404, 1.7799e-002
1049.72300,329.47055, 1.7809e-002
1050.22300,329.66289, 1.7819e-002
1050.72300,329.85987, 1.7829e-002
1051.22300,330.06170, 1.7839e-002
1051.72300,330.26569, 1.7849e-002
1052.22300,330.46882, 1.7858e-002
1052.72300,330.67006, 1.7866e-002
1053.22300,330.86856, 1.7877e-002
1053.72300,331.06538, 1.7886e-002
1054.22300,331.25933, 1.7895e-002
1054.72300,331.45119, 1.7904e-002
1055.22300,331.63954, 1.7913e-002
1055.72300,331.82556, 1.7921e-002
1056.22300,332.01116, 1.7930e-002
1056.72300,332.19735, 1.7939e-002
1057.22300,332.38537, 1.7949e-002
1057.72300,332.57524, 1.7959e-002
1058.22300,332.76524, 1.7968e-002
1058.72300,332.95514, 1.7978e-002
1059.22300,333.14358, 1.7988e-002
1059.72300,333.33005, 1.7996e-002
1060.22300,333.51561, 1.8005e-002
1060.72300,333.69889, 1.8013e-002
1061.22300,333.88142, 1.8022e-002
1061.72300,334.06334, 1.8032e-002
1062.22300,334.24552, 1.8041e-002
1062.72300,334.42823, 1.8050e-002
1063.22300,334.61261, 1.8059e-002
1063.72300,334.79833, 1.8070e-002
1064.22300,334.98386, 1.8080e-002
1064.72300,335.16909, 1.8089e-002
1065.22300,335.35359, 1.8098e-002
1065.72300,335.53799, 1.8107e-002
1066.22300,335.72226, 1.8116e-002
1066.72300,335.90607, 1.8126e-002
1067.22300,336.08956, 1.8136e-002
1067.72300,336.27226, 1.8145e-002
1068.22300,336.45558, 1.8154e-002
1068.72300,336.63700, 1.8164e-002
1069.22300,336.81578, 1.8173e-002
1069.72300,336.99157, 1.8181e-002
1070.22300,337.16393, 1.8190e-002
1070.72300,337.33681, 1.8199e-002
1071.22300,337.51154, 1.8209e-002
1071.72300,337.68959, 1.8218e-002
1072.22300,337.87297, 1.8229e-002
1072.72300,338.06092, 1.8239e-002
1073.22300,338.25603, 1.8250e-002
1073.72300,338.45806, 1.8260e-002
1074.22300,338.66443, 1.8270e-002
1074.72300,338.87279, 1.8278e-002
1075.22300,339.07576, 1.8287e-002
1075.72300,339.27195, 1.8295e-002
1076.22300,339.45954, 1.8304e-002
1076.72300,339.64136, 1.8311e-002
1077.22300,339.81971, 1.8320e-002
1077.72300,339.99726, 1.8328e-002
1078.22300,340.17605, 1.8339e-002
1078.72300,340.35698, 1.8347e-002
1079.22300,340.54112, 1.8357e-002
1079.72300,340.72871, 1.8366e-002
1080.22300,340.92002, 1.8375e-002
1080.72300,341.11273, 1.8386e-002
1081.22300,341.30466, 1.8394e-002
1081.72300,341.49216, 1.8403e-002
1082.22300,341.67332, 1.8411e-002
1082.72300,341.85063, 1.8418e-002
1083.22300,342.02609, 1.8426e-002
1083.72300,342.20275, 1.8435e-002
1084.22300,342.38342, 1.8445e-002
1084.72300,342.56773, 1.8455e-002
1085.22300,342.75476, 1.8464e-002
1085.72300,342.94235, 1.8473e-002
1086.22300,343.13093, 1.8482e-002
1086.72300,343.31901, 1.8491e-002
1087.22300,343.50642, 1.8499e-002
1087.72300,343.69360, 1.8507e-002
1088.22300,343.88078, 1.8517e-002
1088.72300,344.06800, 1.8525e-002
1089.22300,344.25453, 1.8534e-002
1089.72300,344.43740, 1.8543e-002
1090.22300,344.61579, 1.8551e-002
1090.72300,344.79094, 1.8558e-002
1091.22300,344.96490, 1.8567e-002
1091.72300,345.14219, 1.8577e-002
1092.22300,345.32298, 1.8586e-002
1092.72300,345.50753, 1.8596e-002
1093.22300,345.69512, 1.8605e-002
1093.72300,345.88431, 1.8616e-002
1094.22300,346.07295, 1.8625e-002
1094.72300,346.25826, 1.8632e-002
1095.22300,346.43891, 1.8640e-002
1095.72300,346.61528, 1.8648e-002
1096.22300,346.78928, 1.8658e-002
1096.72300,346.96495, 1.8667e-002
1097.22300,347.14477, 1.8676e-002
1097.72300,347.32853, 1.8686e-002
1098.22300,347.51817, 1.8696e-002
1098.72300,347.71137, 1.8706e-002
1099.22300,347.90747, 1.8716e-002
1099.72300,348.10673, 1.8725e-002
1100.22300,348.31015, 1.8735e-002
1100.72300,348.51806, 1.8745e-002
1101.22300,348.72800, 1.8754e-002
1101.72300,348.93401, 1.8763e-002
1102.22300,349.13091, 1.8771e-002
1102.72300,349.31665, 1.8779e-002
1103.22300,349.49143, 1.8785e-002
1103.72300,349.65654, 1.8792e-002
1104.22300,349.81471, 1.8800e-002
1104.72300,349.96840, 1.8807e-002
1105.22300,350.12088, 1.8816e-002
1105.72300,350.27409, 1.8826e-002
1106.22300,350.42961, 1.8834e-002
1106.72300,350.58819, 1.8844e-002
1107.22300,350.74899, 1.8854e-002
1107.72300,350.91517, 1.8864e-002
1108.22300,351.09015, 1.8874e-002

