#EXPORTTYPE:           ,DATA ALL                                                                             
#FILE:                 ,oligHawk001sam1.ngb-sle                                                              
#FORMAT:               ,NETZSCH5                                                                             
#FTYPE:                ,ANSI                                                                                 
#IDENTITY:             ,hawkmine 001                                                                         
#DECIMAL:              ,POINT                                                                                
#SEPARATOR:            ,COMMA                                                                                
#MTYPE:                ,DIL                                                                                  
#INSTRUMENT:           ,NETZSCH DIL 402C                                                                     
#PROJECT:              ,feldspar                                                                             
#DATE/TIME:            ,8/23/2019 9:50:19 AM (UTC-5)                                                         
#CORR. FILE:           ,                                                                                     
#TEMPCAL:              ,TCALZERO.TMX                                                                         
#LABORATORY:           ,Mineral Physics                                                                      
#OPERATOR:             ,PAG                                                                                  
#REMARK:               ,bare, norm start, for short plageioclase,hawk mine trapezoid 001 face,short direction
#SAMPLE:               ,oligioclase hawk                                                                     
#SAMPLE LENGTH /mm:    ,7.035                                                                                
#MATERIAL:             ,sapphire stnd                                                                        
#MEASMODE:             ,Standard Expansion                                                                   
#PURGE GAS 1:          ,ARGON                                                                                
#FLOW RATE 1 /(ml/min):,75                                                                                   
#M.RANGE /µm:          ,500                                                                                  
#CORR. CODE:           ,010                                                                                  
#RANGE:                ,20.0°C/3.0(K/min)/1020.0°C                                                           
#SEGMENT:              ,S1/1                                                                                 
#SEG. 1:               ,20.0°C/3.0(K/min)/1020.0°C                                                           

##Temp./°C,Time/min,dL/Lo
  22.08200,  0.00000, 1.9445e-005
  22.58200,  4.29518, 8.9868e-006
  23.08200,  4.65271,-3.4658e-006
  23.58200,  4.90889,-1.4490e-005
  24.08200,  5.11868,-2.4591e-005
  24.58200,  5.30181,-3.3862e-005
  25.08200,  5.46635,-4.3277e-005
  25.58200,  5.61765,-5.1207e-005
  26.08200,  5.75909,-5.8881e-005
  26.58200,  5.89322,-6.5644e-005
  27.08200,  6.02144,-7.2358e-005
  27.58200,  6.14489,-7.8559e-005
  28.08200,  6.26468,-8.4453e-005
  28.58200,  6.38109,-8.9835e-005
  29.08200,  6.49505,-9.4249e-005
  29.58200,  6.60680,-9.8610e-005
  30.08200,  6.71672,-1.0253e-004
  30.58200,  6.82518,-1.0644e-004
  31.08200,  6.93249,-1.0953e-004
  31.58200,  7.03886,-1.1267e-004
  32.08200,  7.14450,-1.1478e-004
  32.58200,  7.24972,-1.1669e-004
  33.08200,  7.35452,-1.1858e-004
  33.58200,  7.45866,-1.2024e-004
  34.08200,  7.56261,-1.2123e-004
  34.58200,  7.66620,-1.2169e-004
  35.08200,  7.76974,-1.2184e-004
  35.58200,  7.87302,-1.2216e-004
  36.08200,  7.97608,-1.2195e-004
  36.58200,  8.07913,-1.2171e-004
  37.08200,  8.18245,-1.2040e-004
  37.58200,  8.28566,-1.1961e-004
  38.08200,  8.38894,-1.1878e-004
  38.58200,  8.49231,-1.1740e-004
  39.08200,  8.59573,-1.1566e-004
  39.58200,  8.69882,-1.1345e-004
  40.08200,  8.80187,-1.1136e-004
  40.58200,  8.90484,-1.0933e-004
  41.08200,  9.00778,-1.0750e-004
  41.58200,  9.11057,-1.0484e-004
  42.08200,  9.21299,-1.0218e-004
  42.58200,  9.31535,-9.9325e-005
  43.08200,  9.41768,-9.7147e-005
  43.58200,  9.51985,-9.4044e-005
  44.08200,  9.62202,-9.1492e-005
  44.58200,  9.72367,-8.8411e-005
  45.08200,  9.82516,-8.5528e-005
  45.58200,  9.92631,-8.2709e-005
  46.08200, 10.02710,-7.9361e-005
  46.58200, 10.12749,-7.6199e-005
  47.08200, 10.22751,-7.2923e-005
  47.58200, 10.32699,-6.9401e-005
  48.08200, 10.42613,-6.6192e-005
  48.58200, 10.52504,-6.2873e-005
  49.08200, 10.62346,-5.9722e-005
  49.58200, 10.72151,-5.6123e-005
  50.08200, 10.81936,-5.2650e-005
  50.58200, 10.91682,-4.8689e-005
  51.08200, 11.01398,-4.4996e-005
  51.58200, 11.11083,-4.1729e-005
  52.08200, 11.20735,-3.8225e-005
  52.58200, 11.30361,-3.4204e-005
  53.08200, 11.39978,-3.0740e-005
  53.58200, 11.49551,-2.6761e-005
  54.08200, 11.59101,-2.2947e-005
  54.58200, 11.68635,-1.8839e-005
  55.08200, 11.78140,-1.5447e-005
  55.58200, 11.87633,-1.1225e-005
  56.08200, 11.97104,-7.0559e-006
  56.58200, 12.06551,-2.8728e-006
  57.08200, 12.15982, 1.4318e-006
  57.58200, 12.25403, 5.4872e-006
  58.08200, 12.34827, 9.9804e-006
  58.58200, 12.44215, 1.4484e-005
  59.08200, 12.53601, 1.9001e-005
  59.58200, 12.62993, 2.3203e-005
  60.08200, 12.72369, 2.7938e-005
  60.58200, 12.81761, 3.2411e-005
  61.08200, 12.91162, 3.7603e-005
  61.58200, 13.00534, 4.2018e-005
  62.08200, 13.09903, 4.7384e-005
  62.58200, 13.19292, 5.1835e-005
  63.08200, 13.28686, 5.6853e-005
  63.58200, 13.38079, 6.2559e-005
  64.08200, 13.47485, 6.7214e-005
  64.58200, 13.56873, 7.2731e-005
  65.08200, 13.66254, 7.7754e-005
  65.58200, 13.75663, 8.2981e-005
  66.08200, 13.85065, 8.8761e-005
  66.58200, 13.94463, 9.4280e-005
  67.08200, 14.03884, 9.9701e-005
  67.58200, 14.13306, 1.0501e-004
  68.08200, 14.22748, 1.1077e-004
  68.58200, 14.32193, 1.1654e-004
  69.08200, 14.41624, 1.2191e-004
  69.58200, 14.51080, 1.2778e-004
  70.08200, 14.60526, 1.3360e-004
  70.58200, 14.69967, 1.3971e-004
  71.08200, 14.79391, 1.4638e-004
  71.58200, 14.88824, 1.5148e-004
  72.08200, 14.98241, 1.5753e-004
  72.58200, 15.07682, 1.6381e-004
  73.08200, 15.17139, 1.6986e-004
  73.58200, 15.26589, 1.7651e-004
  74.08200, 15.36055, 1.8254e-004
  74.58200, 15.45545, 1.8845e-004
  75.08200, 15.55040, 1.9391e-004
  75.58200, 15.64538, 2.0053e-004
  76.08200, 15.74063, 2.0642e-004
  76.58200, 15.83598, 2.1270e-004
  77.08200, 15.93145, 2.1903e-004
  77.58200, 16.02700, 2.2500e-004
  78.08200, 16.12239, 2.3140e-004
  78.58200, 16.21801, 2.3838e-004
  79.08200, 16.31371, 2.4547e-004
  79.58200, 16.40938, 2.5106e-004
  80.08200, 16.50498, 2.5721e-004
  80.58200, 16.60071, 2.6348e-004
  81.08200, 16.69636, 2.7042e-004
  81.58200, 16.79220, 2.7731e-004
  82.08200, 16.88796, 2.8398e-004
  82.58200, 16.98395, 2.9048e-004
  83.08200, 17.08007, 2.9715e-004
  83.58200, 17.17624, 3.0324e-004
  84.08200, 17.27247, 3.0986e-004
  84.58200, 17.36879, 3.1656e-004
  85.08200, 17.46531, 3.2327e-004
  85.58200, 17.56204, 3.2896e-004
  86.08200, 17.65882, 3.3646e-004
  86.58200, 17.75558, 3.4303e-004
  87.08200, 17.85242, 3.4917e-004
  87.58200, 17.94944, 3.5586e-004
  88.08200, 18.04647, 3.6366e-004
  88.58200, 18.14354, 3.7030e-004
  89.08200, 18.24060, 3.7703e-004
  89.58200, 18.33783, 3.8380e-004
  90.08200, 18.43537, 3.9095e-004
  90.58200, 18.53300, 3.9796e-004
  91.08200, 18.63068, 4.0486e-004
  91.58200, 18.72850, 4.1135e-004
  92.08200, 18.82637, 4.1839e-004
  92.58200, 18.92452, 4.2557e-004
  93.08200, 19.02267, 4.3285e-004
  93.58200, 19.12081, 4.3979e-004
  94.08200, 19.21898, 4.4649e-004
  94.58200, 19.31730, 4.5340e-004
  95.08200, 19.41604, 4.6062e-004
  95.58200, 19.51515, 4.6826e-004
  96.08200, 19.61443, 4.7468e-004
  96.58200, 19.71352, 4.8137e-004
  97.08200, 19.81279, 4.8876e-004
  97.58200, 19.91202, 4.9644e-004
  98.08200, 20.01142, 5.0365e-004
  98.58200, 20.11078, 5.1060e-004
  99.08200, 20.21019, 5.1797e-004
  99.58200, 20.30937, 5.2488e-004
 100.08200, 20.40870, 5.3229e-004
 100.58200, 20.50820, 5.3967e-004
 101.08200, 20.60775, 5.4652e-004
 101.58200, 20.70737, 5.5316e-004
 102.08200, 20.80692, 5.6077e-004
 102.58200, 20.90658, 5.6803e-004
 103.08200, 21.00636, 5.7548e-004
 103.58200, 21.10641, 5.8271e-004
 104.08200, 21.20646, 5.9024e-004
 104.58200, 21.30675, 5.9753e-004
 105.08200, 21.40702, 6.0538e-004
 105.58200, 21.50735, 6.1232e-004
 106.08200, 21.60755, 6.1934e-004
 106.58200, 21.70796, 6.2661e-004
 107.08200, 21.80833, 6.3387e-004
 107.58200, 21.90874, 6.4157e-004
 108.08200, 22.00912, 6.4843e-004
 108.58200, 22.10954, 6.5600e-004
 109.08200, 22.21018, 6.6375e-004
 109.58200, 22.31099, 6.7067e-004
 110.08200, 22.41186, 6.7823e-004
 110.58200, 22.51290, 6.8504e-004
 111.08200, 22.61422, 6.9276e-004
 111.58200, 22.71576, 7.0001e-004
 112.08200, 22.81747, 7.0705e-004
 112.58200, 22.91930, 7.1486e-004
 113.08200, 23.02117, 7.2241e-004
 113.58200, 23.12318, 7.2979e-004
 114.08200, 23.22526, 7.3719e-004
 114.58200, 23.32732, 7.4431e-004
 115.08200, 23.42952, 7.5151e-004
 115.58200, 23.53173, 7.5882e-004
 116.08200, 23.63398, 7.6604e-004
 116.58200, 23.73643, 7.7368e-004
 117.08200, 23.83898, 7.8126e-004
 117.58200, 23.94165, 7.8814e-004
 118.08200, 24.04435, 7.9551e-004
 118.58200, 24.14675, 8.0279e-004
 119.08200, 24.24940, 8.1023e-004
 119.58200, 24.35199, 8.1807e-004
 120.08200, 24.45469, 8.2544e-004
 120.58200, 24.55741, 8.3288e-004
 121.08200, 24.66014, 8.4015e-004
 121.58200, 24.76296, 8.4724e-004
 122.08200, 24.86610, 8.5500e-004
 122.58200, 24.96928, 8.6247e-004
 123.08200, 25.07246, 8.6955e-004
 123.58200, 25.17586, 8.7684e-004
 124.08200, 25.27930, 8.8471e-004
 124.58200, 25.38283, 8.9279e-004
 125.08200, 25.48612, 8.9942e-004
 125.58200, 25.58936, 9.0721e-004
 126.08200, 25.69269, 9.1465e-004
 126.58200, 25.79613, 9.2210e-004
 127.08200, 25.89936, 9.3014e-004
 127.58200, 26.00252, 9.3748e-004
 128.08200, 26.10569, 9.4463e-004
 128.58200, 26.20938, 9.5266e-004
 129.08200, 26.31316, 9.6018e-004
 129.58200, 26.41691, 9.6755e-004
 130.08200, 26.52089, 9.7503e-004
 130.58200, 26.62499, 9.8308e-004
 131.08200, 26.72926, 9.9025e-004
 131.58200, 26.83361, 9.9779e-004
 132.08200, 26.93806, 1.0057e-003
 132.58200, 27.04268, 1.0132e-003
 133.08200, 27.14744, 1.0212e-003
 133.58200, 27.25214, 1.0288e-003
 134.08200, 27.35684, 1.0363e-003
 134.58200, 27.46174, 1.0442e-003
 135.08200, 27.56671, 1.0521e-003
 135.58200, 27.67134, 1.0591e-003
 136.08200, 27.77611, 1.0672e-003
 136.58200, 27.88112, 1.0742e-003
 137.08200, 27.98630, 1.0820e-003
 137.58200, 28.09135, 1.0897e-003
 138.08200, 28.19669, 1.0970e-003
 138.58200, 28.30195, 1.1043e-003
 139.08200, 28.40750, 1.1124e-003
 139.58200, 28.51279, 1.1200e-003
 140.08200, 28.61811, 1.1277e-003
 140.58200, 28.72354, 1.1353e-003
 141.08200, 28.82915, 1.1429e-003
 141.58200, 28.93468, 1.1503e-003
 142.08200, 29.04031, 1.1583e-003
 142.58200, 29.14590, 1.1656e-003
 143.08200, 29.25174, 1.1736e-003
 143.58200, 29.35756, 1.1817e-003
 144.08200, 29.46349, 1.1897e-003
 144.58200, 29.56954, 1.1971e-003
 145.08200, 29.67552, 1.2046e-003
 145.58200, 29.78174, 1.2122e-003
 146.08200, 29.88803, 1.2197e-003
 146.58200, 29.99427, 1.2272e-003
 147.08200, 30.10068, 1.2354e-003
 147.58200, 30.20713, 1.2431e-003
 148.08200, 30.31340, 1.2502e-003
 148.58200, 30.41977, 1.2580e-003
 149.08200, 30.52623, 1.2657e-003
 149.58200, 30.63270, 1.2729e-003
 150.08200, 30.73914, 1.2812e-003
 150.58200, 30.84543, 1.2882e-003
 151.08200, 30.95192, 1.2965e-003
 151.58200, 31.05870, 1.3046e-003
 152.08200, 31.16541, 1.3119e-003
 152.58200, 31.27235, 1.3199e-003
 153.08200, 31.37929, 1.3276e-003
 153.58200, 31.48639, 1.3348e-003
 154.08200, 31.59381, 1.3420e-003
 154.58200, 31.70119, 1.3503e-003
 155.08200, 31.80868, 1.3574e-003
 155.58200, 31.91625, 1.3653e-003
 156.08200, 32.02389, 1.3733e-003
 156.58200, 32.13174, 1.3812e-003
 157.08200, 32.23946, 1.3891e-003
 157.58200, 32.34724, 1.3968e-003
 158.08200, 32.45527, 1.4044e-003
 158.58200, 32.56324, 1.4123e-003
 159.08200, 32.67155, 1.4194e-003
 159.58200, 32.77980, 1.4272e-003
 160.08200, 32.88832, 1.4355e-003
 160.58200, 32.99653, 1.4431e-003
 161.08200, 33.10477, 1.4516e-003
 161.58200, 33.21304, 1.4586e-003
 162.08200, 33.32143, 1.4664e-003
 162.58200, 33.42959, 1.4740e-003
 163.08200, 33.53785, 1.4821e-003
 163.58200, 33.64625, 1.4897e-003
 164.08200, 33.75468, 1.4969e-003
 164.58200, 33.86299, 1.5046e-003
 165.08200, 33.97152, 1.5130e-003
 165.58200, 34.07998, 1.5205e-003
 166.08200, 34.18842, 1.5283e-003
 166.58200, 34.29705, 1.5356e-003
 167.08200, 34.40572, 1.5439e-003
 167.58200, 34.51448, 1.5515e-003
 168.08200, 34.62323, 1.5593e-003
 168.58200, 34.73200, 1.5672e-003
 169.08200, 34.84105, 1.5746e-003
 169.58200, 34.94999, 1.5823e-003
 170.08200, 35.05918, 1.5904e-003
 170.58200, 35.16834, 1.5977e-003
 171.08200, 35.27765, 1.6057e-003
 171.58200, 35.38705, 1.6135e-003
 172.08200, 35.49654, 1.6207e-003
 172.58200, 35.60591, 1.6286e-003
 173.08200, 35.71531, 1.6364e-003
 173.58200, 35.82469, 1.6445e-003
 174.08200, 35.93413, 1.6518e-003
 174.58200, 36.04365, 1.6602e-003
 175.08200, 36.15342, 1.6674e-003
 175.58200, 36.26302, 1.6758e-003
 176.08200, 36.37259, 1.6827e-003
 176.58200, 36.48240, 1.6903e-003
 177.08200, 36.59242, 1.6986e-003
 177.58200, 36.70231, 1.7062e-003
 178.08200, 36.81219, 1.7140e-003
 178.58200, 36.92213, 1.7218e-003
 179.08200, 37.03250, 1.7294e-003
 179.58200, 37.14297, 1.7374e-003
 180.08200, 37.25335, 1.7449e-003
 180.58200, 37.36385, 1.7525e-003
 181.08200, 37.47450, 1.7602e-003
 181.58200, 37.58495, 1.7684e-003
 182.08200, 37.69553, 1.7763e-003
 182.58200, 37.80621, 1.7840e-003
 183.08200, 37.91677, 1.7917e-003
 183.58200, 38.02748, 1.7994e-003
 184.08200, 38.13826, 1.8070e-003
 184.58200, 38.24927, 1.8146e-003
 185.08200, 38.36041, 1.8224e-003
 185.58200, 38.47149, 1.8301e-003
 186.08200, 38.58251, 1.8379e-003
 186.58200, 38.69364, 1.8454e-003
 187.08200, 38.80479, 1.8534e-003
 187.58200, 38.91592, 1.8605e-003
 188.08200, 39.02705, 1.8685e-003
 188.58200, 39.13833, 1.8759e-003
 189.08200, 39.24966, 1.8837e-003
 189.58200, 39.36124, 1.8913e-003
 190.08200, 39.47288, 1.8992e-003
 190.58200, 39.58465, 1.9067e-003
 191.08200, 39.69653, 1.9146e-003
 191.58200, 39.80846, 1.9225e-003
 192.08200, 39.92037, 1.9300e-003
 192.58200, 40.03219, 1.9365e-003
 193.08200, 40.14416, 1.9445e-003
 193.58200, 40.25602, 1.9522e-003
 194.08200, 40.36800, 1.9598e-003
 194.58200, 40.48001, 1.9678e-003
 195.08200, 40.59225, 1.9754e-003
 195.58200, 40.70449, 1.9830e-003
 196.08200, 40.81683, 1.9912e-003
 196.58200, 40.92925, 1.9985e-003
 197.08200, 41.04171, 2.0060e-003
 197.58200, 41.15431, 2.0138e-003
 198.08200, 41.26688, 2.0219e-003
 198.58200, 41.37958, 2.0300e-003
 199.08200, 41.49246, 2.0376e-003
 199.58200, 41.60532, 2.0455e-003
 200.08200, 41.71868, 2.0527e-003
 200.58200, 41.83216, 2.0608e-003
 201.08200, 41.94577, 2.0686e-003
 201.58200, 42.05937, 2.0766e-003
 202.08200, 42.17315, 2.0839e-003
 202.58200, 42.28735, 2.0917e-003
 203.08200, 42.40127, 2.0999e-003
 203.58200, 42.51489, 2.1071e-003
 204.08200, 42.62849, 2.1147e-003
 204.58200, 42.74235, 2.1226e-003
 205.08200, 42.85631, 2.1305e-003
 205.58200, 42.97013, 2.1379e-003
 206.08200, 43.08391, 2.1460e-003
 206.58200, 43.19796, 2.1539e-003
 207.08200, 43.31210, 2.1613e-003
 207.58200, 43.42614, 2.1693e-003
 208.08200, 43.54024, 2.1770e-003
 208.58200, 43.65444, 2.1848e-003
 209.08200, 43.76852, 2.1923e-003
 209.58200, 43.88275, 2.1999e-003
 210.08200, 43.99718, 2.2079e-003
 210.58200, 44.11169, 2.2153e-003
 211.08200, 44.22615, 2.2225e-003
 211.58200, 44.34069, 2.2309e-003
 212.08200, 44.45553, 2.2387e-003
 212.58200, 44.57041, 2.2461e-003
 213.08200, 44.68544, 2.2535e-003
 213.58200, 44.80038, 2.2616e-003
 214.08200, 44.91541, 2.2691e-003
 214.58200, 45.03049, 2.2770e-003
 215.08200, 45.14570, 2.2846e-003
 215.58200, 45.26099, 2.2927e-003
 216.08200, 45.37648, 2.3000e-003
 216.58200, 45.49213, 2.3076e-003
 217.08200, 45.60790, 2.3152e-003
 217.58200, 45.72379, 2.3231e-003
 218.08200, 45.83959, 2.3309e-003
 218.58200, 45.95518, 2.3387e-003
 219.08200, 46.07056, 2.3466e-003
 219.58200, 46.18608, 2.3548e-003
 220.08200, 46.30162, 2.3619e-003
 220.58200, 46.41724, 2.3695e-003
 221.08200, 46.53300, 2.3773e-003
 221.58200, 46.64917, 2.3851e-003
 222.08200, 46.76554, 2.3924e-003
 222.58200, 46.88191, 2.4003e-003
 223.08200, 46.99832, 2.4083e-003
 223.58200, 47.11505, 2.4165e-003
 224.08200, 47.23165, 2.4241e-003
 224.58200, 47.34821, 2.4316e-003
 225.08200, 47.46501, 2.4394e-003
 225.58200, 47.58185, 2.4472e-003
 226.08200, 47.69885, 2.4552e-003
 226.58200, 47.81552, 2.4626e-003
 227.08200, 47.93230, 2.4707e-003
 227.58200, 48.04917, 2.4781e-003
 228.08200, 48.16606, 2.4861e-003
 228.58200, 48.28310, 2.4938e-003
 229.08200, 48.40012, 2.5014e-003
 229.58200, 48.51730, 2.5086e-003
 230.08200, 48.63450, 2.5166e-003
 230.58200, 48.75175, 2.5244e-003
 231.08200, 48.86899, 2.5318e-003
 231.58200, 48.98635, 2.5403e-003
 232.08200, 49.10375, 2.5474e-003
 232.58200, 49.22112, 2.5551e-003
 233.08200, 49.33896, 2.5627e-003
 233.58200, 49.45688, 2.5707e-003
 234.08200, 49.57498, 2.5788e-003
 234.58200, 49.69297, 2.5866e-003
 235.08200, 49.81097, 2.5940e-003
 235.58200, 49.92910, 2.6015e-003
 236.08200, 50.04691, 2.6095e-003
 236.58200, 50.16478, 2.6173e-003
 237.08200, 50.28271, 2.6252e-003
 237.58200, 50.40068, 2.6328e-003
 238.08200, 50.51886, 2.6406e-003
 238.58200, 50.63726, 2.6483e-003
 239.08200, 50.75591, 2.6559e-003
 239.58200, 50.87427, 2.6639e-003
 240.08200, 50.99291, 2.6716e-003
 240.58200, 51.11192, 2.6790e-003
 241.08200, 51.23093, 2.6873e-003
 241.58200, 51.35014, 2.6951e-003
 242.08200, 51.46928, 2.7026e-003
 242.58200, 51.58884, 2.7100e-003
 243.08200, 51.70799, 2.7180e-003
 243.58200, 51.82714, 2.7258e-003
 244.08200, 51.94626, 2.7334e-003
 244.58200, 52.06543, 2.7410e-003
 245.08200, 52.18476, 2.7486e-003
 245.58200, 52.30403, 2.7562e-003
 246.08200, 52.42372, 2.7641e-003
 246.58200, 52.54339, 2.7721e-003
 247.08200, 52.66315, 2.7794e-003
 247.58200, 52.78286, 2.7874e-003
 248.08200, 52.90254, 2.7952e-003
 248.58200, 53.02250, 2.8027e-003
 249.08200, 53.14235, 2.8108e-003
 249.58200, 53.26235, 2.8184e-003
 250.08200, 53.38243, 2.8259e-003
 250.58200, 53.50273, 2.8340e-003
 251.08200, 53.62324, 2.8416e-003
 251.58200, 53.74378, 2.8494e-003
 252.08200, 53.86473, 2.8567e-003
 252.58200, 53.98571, 2.8644e-003
 253.08200, 54.10690, 2.8719e-003
 253.58200, 54.22814, 2.8793e-003
 254.08200, 54.34932, 2.8877e-003
 254.58200, 54.47056, 2.8943e-003
 255.08200, 54.59166, 2.9029e-003
 255.58200, 54.71281, 2.9106e-003
 256.08200, 54.83419, 2.9181e-003
 256.58200, 54.95576, 2.9257e-003
 257.08200, 55.07739, 2.9340e-003
 257.58200, 55.19918, 2.9414e-003
 258.08200, 55.32110, 2.9491e-003
 258.58200, 55.44319, 2.9577e-003
 259.08200, 55.56508, 2.9646e-003
 259.58200, 55.68685, 2.9727e-003
 260.08200, 55.80883, 2.9803e-003
 260.58200, 55.93092, 2.9881e-003
 261.08200, 56.05302, 2.9953e-003
 261.58200, 56.17508, 3.0032e-003
 262.08200, 56.29764, 3.0110e-003
 262.58200, 56.42026, 3.0185e-003
 263.08200, 56.54272, 3.0257e-003
 263.58200, 56.66522, 3.0340e-003
 264.08200, 56.78791, 3.0414e-003
 264.58200, 56.91107, 3.0497e-003
 265.08200, 57.03407, 3.0571e-003
 265.58200, 57.15700, 3.0645e-003
 266.08200, 57.28026, 3.0726e-003
 266.58200, 57.40359, 3.0802e-003
 267.08200, 57.52682, 3.0878e-003
 267.58200, 57.64946, 3.0954e-003
 268.08200, 57.77235, 3.1035e-003
 268.58200, 57.89556, 3.1106e-003
 269.08200, 58.01877, 3.1188e-003
 269.58200, 58.14214, 3.1267e-003
 270.08200, 58.26562, 3.1345e-003
 270.58200, 58.38950, 3.1416e-003
 271.08200, 58.51372, 3.1493e-003
 271.58200, 58.63802, 3.1572e-003
 272.08200, 58.76247, 3.1648e-003
 272.58200, 58.88710, 3.1723e-003
 273.08200, 59.01178, 3.1800e-003
 273.58200, 59.13630, 3.1880e-003
 274.08200, 59.26049, 3.1954e-003
 274.58200, 59.38468, 3.2024e-003
 275.08200, 59.50945, 3.2104e-003
 275.58200, 59.63420, 3.2181e-003
 276.08200, 59.75857, 3.2254e-003
 276.58200, 59.88337, 3.2328e-003
 277.08200, 60.00843, 3.2412e-003
 277.58200, 60.13336, 3.2488e-003
 278.08200, 60.25777, 3.2566e-003
 278.58200, 60.38217, 3.2643e-003
 279.08200, 60.50692, 3.2722e-003
 279.58200, 60.63171, 3.2798e-003
 280.08200, 60.75635, 3.2872e-003
 280.58200, 60.88133, 3.2951e-003
 281.08200, 61.00655, 3.3029e-003
 281.58200, 61.13217, 3.3108e-003
 282.08200, 61.25797, 3.3181e-003
 282.58200, 61.38388, 3.3254e-003
 283.08200, 61.51006, 3.3331e-003
 283.58200, 61.63616, 3.3408e-003
 284.08200, 61.76226, 3.3488e-003
 284.58200, 61.88830, 3.3566e-003
 285.08200, 62.01405, 3.3654e-003
 285.58200, 62.13990, 3.3739e-003
 286.08200, 62.26604, 3.3807e-003
 286.58200, 62.39222, 3.3885e-003
 287.08200, 62.51854, 3.3960e-003
 287.58200, 62.64515, 3.4037e-003
 288.08200, 62.77198, 3.4105e-003
 288.58200, 62.89878, 3.4189e-003
 289.08200, 63.02547, 3.4263e-003
 289.58200, 63.15237, 3.4341e-003
 290.08200, 63.27922, 3.4418e-003
 290.58200, 63.40599, 3.4489e-003
 291.08200, 63.53269, 3.4566e-003
 291.58200, 63.65951, 3.4645e-003
 292.08200, 63.78629, 3.4722e-003
 292.58200, 63.91303, 3.4797e-003
 293.08200, 64.04007, 3.4874e-003
 293.58200, 64.16706, 3.4951e-003
 294.08200, 64.29457, 3.5025e-003
 294.58200, 64.42202, 3.5099e-003
 295.08200, 64.54978, 3.5177e-003
 295.58200, 64.67774, 3.5256e-003
 296.08200, 64.80591, 3.5329e-003
 296.58200, 64.93424, 3.5409e-003
 297.08200, 65.06232, 3.5481e-003
 297.58200, 65.19040, 3.5561e-003
 298.08200, 65.31859, 3.5640e-003
 298.58200, 65.44680, 3.5714e-003
 299.08200, 65.57497, 3.5790e-003
 299.58200, 65.70331, 3.5870e-003
 300.08200, 65.83196, 3.5944e-003
 300.58200, 65.96071, 3.6017e-003
 301.08200, 66.08943, 3.6110e-003
 301.58200, 66.21838, 3.6186e-003
 302.08200, 66.34745, 3.6260e-003
 302.58200, 66.47690, 3.6336e-003
 303.08200, 66.60630, 3.6411e-003
 303.58200, 66.73606, 3.6484e-003
 304.08200, 66.86575, 3.6562e-003
 304.58200, 66.99554, 3.6632e-003
 305.08200, 67.12519, 3.6710e-003
 305.58200, 67.25490, 3.6785e-003
 306.08200, 67.38404, 3.6862e-003
 306.58200, 67.51307, 3.6938e-003
 307.08200, 67.64216, 3.7015e-003
 307.58200, 67.77127, 3.7089e-003
 308.08200, 67.90073, 3.7167e-003
 308.58200, 68.03029, 3.7244e-003
 309.08200, 68.16007, 3.7319e-003
 309.58200, 68.29000, 3.7397e-003
 310.08200, 68.42001, 3.7475e-003
 310.58200, 68.55039, 3.7543e-003
 311.08200, 68.68106, 3.7619e-003
 311.58200, 68.81180, 3.7694e-003
 312.08200, 68.94289, 3.7769e-003
 312.58200, 69.07394, 3.7846e-003
 313.08200, 69.20455, 3.7923e-003
 313.58200, 69.33481, 3.8003e-003
 314.08200, 69.46512, 3.8072e-003
 314.58200, 69.59541, 3.8154e-003
 315.08200, 69.72578, 3.8225e-003
 315.58200, 69.85639, 3.8308e-003
 316.08200, 69.98741, 3.8380e-003
 316.58200, 70.11843, 3.8453e-003
 317.08200, 70.24973, 3.8530e-003
 317.58200, 70.38105, 3.8604e-003
 318.08200, 70.51247, 3.8681e-003
 318.58200, 70.64424, 3.8755e-003
 319.08200, 70.77627, 3.8830e-003
 319.58200, 70.90833, 3.8904e-003
 320.08200, 71.04055, 3.8981e-003
 320.58200, 71.17321, 3.9056e-003
 321.08200, 71.30547, 3.9134e-003
 321.58200, 71.43742, 3.9207e-003
 322.08200, 71.56953, 3.9289e-003
 322.58200, 71.70167, 3.9362e-003
 323.08200, 71.83397, 3.9439e-003
 323.58200, 71.96639, 3.9515e-003
 324.08200, 72.09912, 3.9591e-003
 324.58200, 72.23186, 3.9668e-003
 325.08200, 72.36466, 3.9745e-003
 325.58200, 72.49749, 3.9821e-003
 326.08200, 72.63046, 3.9895e-003
 326.58200, 72.76342, 3.9972e-003
 327.08200, 72.89644, 4.0045e-003
 327.58200, 73.02973, 4.0122e-003
 328.08200, 73.16316, 4.0204e-003
 328.58200, 73.29646, 4.0273e-003
 329.08200, 73.42980, 4.0352e-003
 329.58200, 73.56352, 4.0428e-003
 330.08200, 73.69732, 4.0513e-003
 330.58200, 73.83121, 4.0591e-003
 331.08200, 73.96518, 4.0672e-003
 331.58200, 74.09939, 4.0754e-003
 332.08200, 74.23363, 4.0829e-003
 332.58200, 74.36784, 4.0910e-003
 333.08200, 74.50233, 4.0997e-003
 333.58200, 74.63735, 4.1074e-003
 334.08200, 74.77245, 4.1157e-003
 334.58200, 74.90793, 4.1234e-003
 335.08200, 75.04370, 4.1319e-003
 335.58200, 75.17971, 4.1402e-003
 336.08200, 75.31582, 4.1483e-003
 336.58200, 75.45220, 4.1567e-003
 337.08200, 75.58876, 4.1648e-003
 337.58200, 75.72526, 4.1730e-003
 338.08200, 75.86195, 4.1813e-003
 338.58200, 75.99877, 4.1896e-003
 339.08200, 76.13542, 4.1973e-003
 339.58200, 76.27206, 4.2051e-003
 340.08200, 76.40877, 4.2131e-003
 340.58200, 76.54542, 4.2208e-003
 341.08200, 76.68187, 4.2286e-003
 341.58200, 76.81818, 4.2359e-003
 342.08200, 76.95438, 4.2439e-003
 342.58200, 77.09031, 4.2515e-003
 343.08200, 77.22580, 4.2587e-003
 343.58200, 77.36095, 4.2659e-003
 344.08200, 77.49569, 4.2729e-003
 344.58200, 77.62990, 4.2796e-003
 345.08200, 77.76361, 4.2872e-003
 345.58200, 77.89675, 4.2946e-003
 346.08200, 78.02944, 4.3011e-003
 346.58200, 78.16156, 4.3079e-003
 347.08200, 78.29351, 4.3146e-003
 347.58200, 78.42529, 4.3215e-003
 348.08200, 78.55687, 4.3282e-003
 348.58200, 78.68806, 4.3346e-003
 349.08200, 78.81903, 4.3417e-003
 349.58200, 78.94963, 4.3480e-003
 350.08200, 79.08011, 4.3555e-003
 350.58200, 79.21030, 4.3623e-003
 351.08200, 79.34060, 4.3688e-003
 351.58200, 79.47093, 4.3756e-003
 352.08200, 79.60132, 4.3826e-003
 352.58200, 79.73156, 4.3893e-003
 353.08200, 79.86159, 4.3956e-003
 353.58200, 79.99177, 4.4030e-003
 354.08200, 80.12204, 4.4100e-003
 354.58200, 80.25242, 4.4169e-003
 355.08200, 80.38283, 4.4237e-003
 355.58200, 80.51368, 4.4311e-003
 356.08200, 80.64501, 4.4384e-003
 356.58200, 80.77651, 4.4458e-003
 357.08200, 80.90803, 4.4530e-003
 357.58200, 81.04017, 4.4599e-003
 358.08200, 81.17259, 4.4676e-003
 358.58200, 81.30513, 4.4755e-003
 359.08200, 81.43795, 4.4820e-003
 359.58200, 81.57142, 4.4891e-003
 360.08200, 81.70506, 4.4972e-003
 360.58200, 81.83872, 4.5041e-003
 361.08200, 81.97292, 4.5116e-003
 361.58200, 82.10736, 4.5193e-003
 362.08200, 82.24181, 4.5267e-003
 362.58200, 82.37640, 4.5341e-003
 363.08200, 82.51157, 4.5418e-003
 363.58200, 82.64690, 4.5495e-003
 364.08200, 82.78214, 4.5568e-003
 364.58200, 82.91752, 4.5648e-003
 365.08200, 83.05281, 4.5720e-003
 365.58200, 83.18831, 4.5795e-003
 366.08200, 83.32373, 4.5872e-003
 366.58200, 83.45974, 4.5941e-003
 367.08200, 83.59606, 4.6016e-003
 367.58200, 83.73315, 4.6090e-003
 368.08200, 83.87018, 4.6163e-003
 368.58200, 84.00781, 4.6240e-003
 369.08200, 84.14543, 4.6324e-003
 369.58200, 84.28312, 4.6392e-003
 370.08200, 84.42111, 4.6474e-003
 370.58200, 84.55926, 4.6551e-003
 371.08200, 84.69723, 4.6622e-003
 371.58200, 84.83541, 4.6699e-003
 372.08200, 84.97365, 4.6771e-003
 372.58200, 85.11188, 4.6845e-003
 373.08200, 85.25031, 4.6926e-003
 373.58200, 85.38903, 4.7004e-003
 374.08200, 85.52816, 4.7078e-003
 374.58200, 85.66721, 4.7153e-003
 375.08200, 85.80684, 4.7227e-003
 375.58200, 85.94665, 4.7303e-003
 376.08200, 86.08687, 4.7377e-003
 376.58200, 86.22674, 4.7453e-003
 377.08200, 86.36688, 4.7526e-003
 377.58200, 86.50708, 4.7602e-003
 378.08200, 86.64766, 4.7676e-003
 378.58200, 86.78841, 4.7752e-003
 379.08200, 86.92973, 4.7828e-003
 379.58200, 87.07138, 4.7906e-003
 380.08200, 87.21304, 4.7979e-003
 380.58200, 87.35437, 4.8055e-003
 381.08200, 87.49568, 4.8136e-003
 381.58200, 87.63697, 4.8207e-003
 382.08200, 87.77852, 4.8287e-003
 382.58200, 87.92021, 4.8364e-003
 383.08200, 88.06208, 4.8437e-003
 383.58200, 88.20437, 4.8512e-003
 384.08200, 88.34683, 4.8587e-003
 384.58200, 88.48908, 4.8663e-003
 385.08200, 88.63171, 4.8735e-003
 385.58200, 88.77442, 4.8813e-003
 386.08200, 88.91707, 4.8882e-003
 386.58200, 89.05983, 4.8963e-003
 387.08200, 89.20288, 4.9032e-003
 387.58200, 89.34585, 4.9111e-003
 388.08200, 89.48907, 4.9187e-003
 388.58200, 89.63266, 4.9258e-003
 389.08200, 89.77656, 4.9335e-003
 389.58200, 89.92014, 4.9406e-003
 390.08200, 90.06379, 4.9489e-003
 390.58200, 90.20737, 4.9565e-003
 391.08200, 90.35101, 4.9643e-003
 391.58200, 90.49489, 4.9716e-003
 392.08200, 90.63903, 4.9789e-003
 392.58200, 90.78379, 4.9865e-003
 393.08200, 90.92858, 4.9941e-003
 393.58200, 91.07327, 5.0015e-003
 394.08200, 91.21768, 5.0090e-003
 394.58200, 91.36250, 5.0168e-003
 395.08200, 91.50720, 5.0243e-003
 395.58200, 91.65215, 5.0317e-003
 396.08200, 91.79725, 5.0392e-003
 396.58200, 91.94267, 5.0471e-003
 397.08200, 92.08819, 5.0542e-003
 397.58200, 92.23342, 5.0618e-003
 398.08200, 92.37851, 5.0700e-003
 398.58200, 92.52358, 5.0775e-003
 399.08200, 92.66876, 5.0839e-003
 399.58200, 92.81388, 5.0911e-003
 400.08200, 92.95931, 5.0987e-003
 400.58200, 93.10501, 5.1064e-003
 401.08200, 93.25072, 5.1137e-003
 401.58200, 93.39681, 5.1212e-003
 402.08200, 93.54288, 5.1289e-003
 402.58200, 93.68933, 5.1359e-003
 403.08200, 93.83611, 5.1429e-003
 403.58200, 93.98302, 5.1514e-003
 404.08200, 94.12957, 5.1589e-003
 404.58200, 94.27604, 5.1660e-003
 405.08200, 94.42210, 5.1733e-003
 405.58200, 94.56805, 5.1810e-003
 406.08200, 94.71400, 5.1886e-003
 406.58200, 94.86018, 5.1956e-003
 407.08200, 95.00662, 5.2034e-003
 407.58200, 95.15364, 5.2109e-003
 408.08200, 95.30097, 5.2185e-003
 408.58200, 95.44808, 5.2254e-003
 409.08200, 95.59529, 5.2327e-003
 409.58200, 95.74273, 5.2404e-003
 410.08200, 95.88976, 5.2476e-003
 410.58200, 96.03672, 5.2552e-003
 411.08200, 96.18430, 5.2632e-003
 411.58200, 96.33167, 5.2707e-003
 412.08200, 96.47898, 5.2779e-003
 412.58200, 96.62670, 5.2858e-003
 413.08200, 96.77437, 5.2928e-003
 413.58200, 96.92216, 5.2998e-003
 414.08200, 97.07006, 5.3076e-003
 414.58200, 97.21820, 5.3147e-003
 415.08200, 97.36608, 5.3219e-003
 415.58200, 97.51392, 5.3296e-003
 416.08200, 97.66181, 5.3367e-003
 416.58200, 97.80955, 5.3438e-003
 417.08200, 97.95728, 5.3517e-003
 417.58200, 98.10494, 5.3589e-003
 418.08200, 98.25284, 5.3664e-003
 418.58200, 98.40064, 5.3736e-003
 419.08200, 98.54848, 5.3814e-003
 419.58200, 98.69635, 5.3888e-003
 420.08200, 98.84430, 5.3960e-003
 420.58200, 98.99230, 5.4032e-003
 421.08200, 99.14050, 5.4106e-003
 421.58200, 99.28908, 5.4176e-003
 422.08200, 99.43796, 5.4254e-003
 422.58200, 99.58698, 5.4327e-003
 423.08200, 99.73636, 5.4395e-003
 423.58200, 99.88595, 5.4471e-003
 424.08200,100.03548, 5.4549e-003
 424.58200,100.18517, 5.4623e-003
 425.08200,100.33489, 5.4695e-003
 425.58200,100.48439, 5.4769e-003
 426.08200,100.63391, 5.4849e-003
 426.58200,100.78355, 5.4922e-003
 427.08200,100.93325, 5.4993e-003
 427.58200,101.08315, 5.5075e-003
 428.08200,101.23320, 5.5146e-003
 428.58200,101.38364, 5.5221e-003
 429.08200,101.53416, 5.5293e-003
 429.58200,101.68474, 5.5362e-003
 430.08200,101.83540, 5.5421e-003
 430.58200,101.98594, 5.5500e-003
 431.08200,102.13628, 5.5573e-003
 431.58200,102.28647, 5.5646e-003
 432.08200,102.43656, 5.5719e-003
 432.58200,102.58695, 5.5793e-003
 433.08200,102.73751, 5.5869e-003
 433.58200,102.88802, 5.5938e-003
 434.08200,103.03856, 5.6011e-003
 434.58200,103.18908, 5.6087e-003
 435.08200,103.33942, 5.6157e-003
 435.58200,103.48982, 5.6236e-003
 436.08200,103.64037, 5.6304e-003
 436.58200,103.79116, 5.6381e-003
 437.08200,103.94188, 5.6452e-003
 437.58200,104.09213, 5.6527e-003
 438.08200,104.24231, 5.6602e-003
 438.58200,104.39269, 5.6679e-003
 439.08200,104.54291, 5.6752e-003
 439.58200,104.69335, 5.6829e-003
 440.08200,104.84462, 5.6903e-003
 440.58200,104.99633, 5.6976e-003
 441.08200,105.14790, 5.7050e-003
 441.58200,105.29960, 5.7124e-003
 442.08200,105.45148, 5.7202e-003
 442.58200,105.60342, 5.7278e-003
 443.08200,105.75533, 5.7345e-003
 443.58200,105.90739, 5.7422e-003
 444.08200,106.05973, 5.7498e-003
 444.58200,106.21238, 5.7571e-003
 445.08200,106.36518, 5.7644e-003
 445.58200,106.51816, 5.7715e-003
 446.08200,106.67132, 5.7791e-003
 446.58200,106.82412, 5.7866e-003
 447.08200,106.97673, 5.7937e-003
 447.58200,107.12917, 5.8012e-003
 448.08200,107.28204, 5.8030e-003
 448.58200,107.43489, 5.8094e-003
 449.08200,107.58793, 5.8160e-003
 449.58200,107.74104, 5.8237e-003
 450.08200,107.89416, 5.8308e-003
 450.58200,108.04736, 5.8372e-003
 451.08200,108.20049, 5.8452e-003
 451.58200,108.35399, 5.8522e-003
 452.08200,108.50749, 5.8597e-003
 452.58200,108.66113, 5.8669e-003
 453.08200,108.81467, 5.8743e-003
 453.58200,108.96837, 5.8818e-003
 454.08200,109.12206, 5.8891e-003
 454.58200,109.27568, 5.8962e-003
 455.08200,109.42951, 5.9032e-003
 455.58200,109.58329, 5.9106e-003
 456.08200,109.73705, 5.9161e-003
 456.58200,109.89129, 5.9203e-003
 457.08200,110.04541, 5.9274e-003
 457.58200,110.19939, 5.9345e-003
 458.08200,110.35368, 5.9418e-003
 458.58200,110.50776, 5.9494e-003
 459.08200,110.66193, 5.9568e-003
 459.58200,110.81653, 5.9639e-003
 460.08200,110.97141, 5.9712e-003
 460.58200,111.12664, 5.9790e-003
 461.08200,111.28232, 5.9861e-003
 461.58200,111.43801, 5.9945e-003
 462.08200,111.59413, 6.0011e-003
 462.58200,111.75064, 6.0087e-003
 463.08200,111.90721, 6.0157e-003
 463.58200,112.06353, 6.0231e-003
 464.08200,112.21933, 6.0305e-003
 464.58200,112.37477, 6.0378e-003
 465.08200,112.52961, 6.0449e-003
 465.58200,112.68472, 6.0522e-003
 466.08200,112.83979, 6.0595e-003
 466.58200,112.99504, 6.0665e-003
 467.08200,113.15049, 6.0744e-003
 467.58200,113.30556, 6.0809e-003
 468.08200,113.46068, 6.0886e-003
 468.58200,113.61614, 6.0956e-003
 469.08200,113.77147, 6.1033e-003
 469.58200,113.92708, 6.1088e-003
 470.08200,114.08301, 6.1160e-003
 470.58200,114.23837, 6.1236e-003
 471.08200,114.39354, 6.1308e-003
 471.58200,114.54908, 6.1383e-003
 472.08200,114.70442, 6.1455e-003
 472.58200,114.85974, 6.1523e-003
 473.08200,115.01553, 6.1596e-003
 473.58200,115.17103, 6.1669e-003
 474.08200,115.32628, 6.1743e-003
 474.58200,115.48129, 6.1812e-003
 475.08200,115.63625, 6.1893e-003
 475.58200,115.79165, 6.1964e-003
 476.08200,115.94745, 6.2035e-003
 476.58200,116.10378, 6.2114e-003
 477.08200,116.26139, 6.2184e-003
 477.58200,116.41875, 6.2249e-003
 478.08200,116.57666, 6.2325e-003
 478.58200,116.73492, 6.2397e-003
 479.08200,116.89290, 6.2473e-003
 479.58200,117.05152, 6.2543e-003
 480.08200,117.21047, 6.2619e-003
 480.58200,117.36893, 6.2693e-003
 481.08200,117.52696, 6.2765e-003
 481.58200,117.68506, 6.2838e-003
 482.08200,117.84302, 6.2917e-003
 482.58200,118.00095, 6.2994e-003
 483.08200,118.15909, 6.3061e-003
 483.58200,118.31769, 6.3136e-003
 484.08200,118.47563, 6.3211e-003
 484.58200,118.63293, 6.3282e-003
 485.08200,118.79085, 6.3359e-003
 485.58200,118.94873, 6.3428e-003
 486.08200,119.10626, 6.3500e-003
 486.58200,119.26455, 6.3573e-003
 487.08200,119.42315, 6.3649e-003
 487.58200,119.58196, 6.3722e-003
 488.08200,119.74089, 6.3798e-003
 488.58200,119.89983, 6.3867e-003
 489.08200,120.05899, 6.3948e-003
 489.58200,120.21807, 6.4019e-003
 490.08200,120.37748, 6.4095e-003
 490.58200,120.53721, 6.4169e-003
 491.08200,120.69715, 6.4243e-003
 491.58200,120.85738, 6.4323e-003
 492.08200,121.01794, 6.4400e-003
 492.58200,121.17940, 6.4485e-003
 493.08200,121.34097, 6.4560e-003
 493.58200,121.50300, 6.4635e-003
 494.08200,121.66560, 6.4720e-003
 494.58200,121.82838, 6.4804e-003
 495.08200,121.99147, 6.4881e-003
 495.58200,122.15538, 6.4967e-003
 496.08200,122.31976, 6.5054e-003
 496.58200,122.48424, 6.5133e-003
 497.08200,122.64933, 6.5219e-003
 497.58200,122.81455, 6.5303e-003
 498.08200,122.97959, 6.5385e-003
 498.58200,123.14438, 6.5466e-003
 499.08200,123.30890, 6.5544e-003
 499.58200,123.47315, 6.5629e-003
 500.08200,123.63731, 6.5704e-003
 500.58200,123.80117, 6.5781e-003
 501.08200,123.96449, 6.5860e-003
 501.58200,124.12714, 6.5936e-003
 502.08200,124.28878, 6.6006e-003
 502.58200,124.44966, 6.6076e-003
 503.08200,124.60967, 6.6147e-003
 503.58200,124.76909, 6.6191e-003
 504.08200,124.92827, 6.6257e-003
 504.58200,125.08688, 6.6317e-003
 505.08200,125.24457, 6.6388e-003
 505.58200,125.40120, 6.6451e-003
 506.08200,125.55664, 6.6520e-003
 506.58200,125.71119, 6.6585e-003
 507.08200,125.86502, 6.6648e-003
 507.58200,126.01855, 6.6714e-003
 508.08200,126.17156, 6.6781e-003
 508.58200,126.32425, 6.6848e-003
 509.08200,126.47665, 6.6912e-003
 509.58200,126.62902, 6.6980e-003
 510.08200,126.78140, 6.7046e-003
 510.58200,126.93432, 6.7112e-003
 511.08200,127.08686, 6.7182e-003
 511.58200,127.23951, 6.7248e-003
 512.08200,127.39237, 6.7322e-003
 512.58200,127.54554, 6.7390e-003
 513.08200,127.69893, 6.7462e-003
 513.58200,127.85289, 6.7511e-003
 514.08200,128.00780, 6.7577e-003
 514.58200,128.16291, 6.7647e-003
 515.08200,128.31817, 6.7711e-003
 515.58200,128.47416, 6.7782e-003
 516.08200,128.63009, 6.7858e-003
 516.58200,128.78584, 6.7926e-003
 517.08200,128.94164, 6.8001e-003
 517.58200,129.09797, 6.8070e-003
 518.08200,129.25426, 6.8141e-003
 518.58200,129.41087, 6.8212e-003
 519.08200,129.56840, 6.8285e-003
 519.58200,129.72653, 6.8342e-003
 520.08200,129.88474, 6.8414e-003
 520.58200,130.04317, 6.8485e-003
 521.08200,130.20232, 6.8559e-003
 521.58200,130.36163, 6.8635e-003
 522.08200,130.52066, 6.8706e-003
 522.58200,130.68037, 6.8783e-003
 523.08200,130.84018, 6.8852e-003
 523.58200,131.00040, 6.8921e-003
 524.08200,131.16087, 6.8999e-003
 524.58200,131.32186, 6.9070e-003
 525.08200,131.48296, 6.9149e-003
 525.58200,131.64460, 6.9219e-003
 526.08200,131.80617, 6.9283e-003
 526.58200,131.96784, 6.9357e-003
 527.08200,132.12971, 6.9434e-003
 527.58200,132.29176, 6.9501e-003
 528.08200,132.45391, 6.9575e-003
 528.58200,132.61663, 6.9649e-003
 529.08200,132.77982, 6.9723e-003
 529.58200,132.94300, 6.9794e-003
 530.08200,133.10665, 6.9866e-003
 530.58200,133.27058, 6.9947e-003
 531.08200,133.43431, 7.0019e-003
 531.58200,133.59816, 7.0090e-003
 532.08200,133.76236, 7.0166e-003
 532.58200,133.92631, 7.0239e-003
 533.08200,134.09056, 7.0311e-003
 533.58200,134.25581, 7.0389e-003
 534.08200,134.42120, 7.0461e-003
 534.58200,134.58688, 7.0533e-003
 535.08200,134.75293, 7.0601e-003
 535.58200,134.91898, 7.0671e-003
 536.08200,135.08511, 7.0745e-003
 536.58200,135.25110, 7.0820e-003
 537.08200,135.41691, 7.0894e-003
 537.58200,135.58255, 7.0969e-003
 538.08200,135.74826, 7.1044e-003
 538.58200,135.91418, 7.1115e-003
 539.08200,136.08090, 7.1189e-003
 539.58200,136.24780, 7.1261e-003
 540.08200,136.41491, 7.1329e-003
 540.58200,136.58232, 7.1404e-003
 541.08200,136.74905, 7.1479e-003
 541.58200,136.91521, 7.1553e-003
 542.08200,137.08146, 7.1625e-003
 542.58200,137.24754, 7.1702e-003
 543.08200,137.41387, 7.1775e-003
 543.58200,137.58090, 7.1846e-003
 544.08200,137.74835, 7.1924e-003
 544.58200,137.91623, 7.1997e-003
 545.08200,138.08406, 7.2073e-003
 545.58200,138.25244, 7.2147e-003
 546.08200,138.42076, 7.2221e-003
 546.58200,138.58913, 7.2292e-003
 547.08200,138.75741, 7.2365e-003
 547.58200,138.92540, 7.2444e-003
 548.08200,139.09328, 7.2514e-003
 548.58200,139.26094, 7.2588e-003
 549.08200,139.42886, 7.2659e-003
 549.58200,139.59709, 7.2736e-003
 550.08200,139.76509, 7.2805e-003
 550.58200,139.93335, 7.2883e-003
 551.08200,140.10261, 7.2963e-003
 551.58200,140.27122, 7.3034e-003
 552.08200,140.44027, 7.3109e-003
 552.58200,140.60955, 7.3184e-003
 553.08200,140.77800, 7.3249e-003
 553.58200,140.94673, 7.3322e-003
 554.08200,141.11595, 7.3397e-003
 554.58200,141.28510, 7.3472e-003
 555.08200,141.45441, 7.3542e-003
 555.58200,141.62376, 7.3618e-003
 556.08200,141.79316, 7.3690e-003
 556.58200,141.96255, 7.3761e-003
 557.08200,142.13258, 7.3840e-003
 557.58200,142.30263, 7.3914e-003
 558.08200,142.47239, 7.3987e-003
 558.58200,142.64159, 7.4063e-003
 559.08200,142.81059, 7.4131e-003
 559.58200,142.97941, 7.4211e-003
 560.08200,143.14864, 7.4281e-003
 560.58200,143.31863, 7.4357e-003
 561.08200,143.48911, 7.4423e-003
 561.58200,143.65988, 7.4497e-003
 562.08200,143.83039, 7.4572e-003
 562.58200,144.00093, 7.4649e-003
 563.08200,144.17128, 7.4724e-003
 563.58200,144.34119, 7.4798e-003
 564.08200,144.51130, 7.4869e-003
 564.58200,144.68138, 7.4945e-003
 565.08200,144.85123, 7.5023e-003
 565.58200,145.02173, 7.5096e-003
 566.08200,145.19275, 7.5168e-003
 566.58200,145.36434, 7.5243e-003
 567.08200,145.53614, 7.5323e-003
 567.58200,145.70803, 7.5375e-003
 568.08200,145.87945, 7.5448e-003
 568.58200,146.05051, 7.5524e-003
 569.08200,146.22135, 7.5597e-003
 569.58200,146.39197, 7.5665e-003
 570.08200,146.56269, 7.5744e-003
 570.58200,146.73297, 7.5815e-003
 571.08200,146.90324, 7.5896e-003
 571.58200,147.07361, 7.5966e-003
 572.08200,147.24389, 7.6043e-003
 572.58200,147.41445, 7.6107e-003
 573.08200,147.58540, 7.6175e-003
 573.58200,147.75673, 7.6251e-003
 574.08200,147.92820, 7.6323e-003
 574.58200,148.09988, 7.6398e-003
 575.08200,148.27223, 7.6473e-003
 575.58200,148.44440, 7.6548e-003
 576.08200,148.61697, 7.6618e-003
 576.58200,148.78954, 7.6693e-003
 577.08200,148.96181, 7.6770e-003
 577.58200,149.13438, 7.6832e-003
 578.08200,149.30664, 7.6907e-003
 578.58200,149.47895, 7.6979e-003
 579.08200,149.65095, 7.7052e-003
 579.58200,149.82262, 7.7126e-003
 580.08200,149.99447, 7.7206e-003
 580.58200,150.16631, 7.7273e-003
 581.08200,150.33887, 7.7348e-003
 581.58200,150.51197, 7.7423e-003
 582.08200,150.68434, 7.7497e-003
 582.58200,150.85679, 7.7570e-003
 583.08200,151.02910, 7.7644e-003
 583.58200,151.20088, 7.7721e-003
 584.08200,151.37344, 7.7801e-003
 584.58200,151.54611, 7.7871e-003
 585.08200,151.71887, 7.7952e-003
 585.58200,151.89213, 7.8023e-003
 586.08200,152.06594, 7.8091e-003
 586.58200,152.23935, 7.8172e-003
 587.08200,152.41283, 7.8245e-003
 587.58200,152.58618, 7.8319e-003
 588.08200,152.75913, 7.8394e-003
 588.58200,152.93195, 7.8461e-003
 589.08200,153.10468, 7.8544e-003
 589.58200,153.27774, 7.8612e-003
 590.08200,153.45054, 7.8687e-003
 590.58200,153.62357, 7.8768e-003
 591.08200,153.79665, 7.8843e-003
 591.58200,153.96914, 7.8913e-003
 592.08200,154.14160, 7.8982e-003
 592.58200,154.31395, 7.9060e-003
 593.08200,154.48660, 7.9136e-003
 593.58200,154.65931, 7.9208e-003
 594.08200,154.83254, 7.9288e-003
 594.58200,155.00616, 7.9361e-003
 595.08200,155.17965, 7.9439e-003
 595.58200,155.35353, 7.9514e-003
 596.08200,155.52713, 7.9589e-003
 596.58200,155.70110, 7.9673e-003
 597.08200,155.87562, 7.9750e-003
 597.58200,156.05038, 7.9834e-003
 598.08200,156.22593, 7.9921e-003
 598.58200,156.40239, 7.9998e-003
 599.08200,156.57904, 8.0080e-003
 599.58200,156.75655, 8.0165e-003
 600.08200,156.93456, 8.0246e-003
 600.58200,157.11287, 8.0326e-003
 601.08200,157.29144, 8.0404e-003
 601.58200,157.47007, 8.0473e-003
 602.08200,157.64866, 8.0545e-003
 602.58200,157.82666, 8.0620e-003
 603.08200,158.00509, 8.0694e-003
 603.58200,158.18266, 8.0761e-003
 604.08200,158.35952, 8.0839e-003
 604.58200,158.53547, 8.0910e-003
 605.08200,158.70941, 8.0986e-003
 605.58200,158.88244, 8.1060e-003
 606.08200,159.05483, 8.1129e-003
 606.58200,159.22615, 8.1198e-003
 607.08200,159.39764, 8.1263e-003
 607.58200,159.56809, 8.1335e-003
 608.08200,159.73744, 8.1402e-003
 608.58200,159.90650, 8.1473e-003
 609.08200,160.07486, 8.1543e-003
 609.58200,160.24304, 8.1613e-003
 610.08200,160.41141, 8.1681e-003
 610.58200,160.57990, 8.1756e-003
 611.08200,160.74850, 8.1829e-003
 611.58200,160.91726, 8.1896e-003
 612.08200,161.08625, 8.1971e-003
 612.58200,161.25559, 8.2042e-003
 613.08200,161.42525, 8.2114e-003
 613.58200,161.59544, 8.2188e-003
 614.08200,161.76582, 8.2266e-003
 614.58200,161.93600, 8.2332e-003
 615.08200,162.10647, 8.2413e-003
 615.58200,162.27744, 8.2487e-003
 616.08200,162.44900, 8.2563e-003
 616.58200,162.62131, 8.2633e-003
 617.08200,162.79384, 8.2708e-003
 617.58200,162.96662, 8.2786e-003
 618.08200,163.13943, 8.2862e-003
 618.58200,163.31207, 8.2933e-003
 619.08200,163.48475, 8.3006e-003
 619.58200,163.65782, 8.3080e-003
 620.08200,163.83097, 8.3151e-003
 620.58200,164.00460, 8.3230e-003
 621.08200,164.17858, 8.3299e-003
 621.58200,164.35247, 8.3375e-003
 622.08200,164.52660, 8.3451e-003
 622.58200,164.70095, 8.3521e-003
 623.08200,164.87585, 8.3596e-003
 623.58200,165.05111, 8.3669e-003
 624.08200,165.22628, 8.3747e-003
 624.58200,165.40189, 8.3810e-003
 625.08200,165.57768, 8.3883e-003
 625.58200,165.75315, 8.3950e-003
 626.08200,165.92887, 8.4029e-003
 626.58200,166.10458, 8.4104e-003
 627.08200,166.28043, 8.4182e-003
 627.58200,166.45721, 8.4252e-003
 628.08200,166.63440, 8.4331e-003
 628.58200,166.81195, 8.4404e-003
 629.08200,166.98931, 8.4479e-003
 629.58200,167.16650, 8.4560e-003
 630.08200,167.34327, 8.4631e-003
 630.58200,167.52011, 8.4703e-003
 631.08200,167.69711, 8.4781e-003
 631.58200,167.87396, 8.4853e-003
 632.08200,168.05175, 8.4926e-003
 632.58200,168.22930, 8.5002e-003
 633.08200,168.40712, 8.5071e-003
 633.58200,168.58534, 8.5143e-003
 634.08200,168.76325, 8.5220e-003
 634.58200,168.94134, 8.5296e-003
 635.08200,169.11953, 8.5374e-003
 635.58200,169.29761, 8.5448e-003
 636.08200,169.47559, 8.5530e-003
 636.58200,169.65399, 8.5599e-003
 637.08200,169.83217, 8.5676e-003
 637.58200,170.01060, 8.5753e-003
 638.08200,170.18933, 8.5824e-003
 638.58200,170.36795, 8.5904e-003
 639.08200,170.54707, 8.5983e-003
 639.58200,170.72649, 8.6058e-003
 640.08200,170.90606, 8.6133e-003
 640.58200,171.08577, 8.6210e-003
 641.08200,171.26548, 8.6288e-003
 641.58200,171.44499, 8.6357e-003
 642.08200,171.62460, 8.6438e-003
 642.58200,171.80410, 8.6511e-003
 643.08200,171.98351, 8.6590e-003
 643.58200,172.16277, 8.6665e-003
 644.08200,172.34209, 8.6739e-003
 644.58200,172.52160, 8.6814e-003
 645.08200,172.70137, 8.6891e-003
 645.58200,172.88182, 8.6963e-003
 646.08200,173.06292, 8.7043e-003
 646.58200,173.24400, 8.7117e-003
 647.08200,173.42478, 8.7191e-003
 647.58200,173.60516, 8.7272e-003
 648.08200,173.78536, 8.7335e-003
 648.58200,173.96595, 8.7417e-003
 649.08200,174.14662, 8.7486e-003
 649.58200,174.32789, 8.7564e-003
 650.08200,174.50833, 8.7640e-003
 650.58200,174.68888, 8.7712e-003
 651.08200,174.86994, 8.7784e-003
 651.58200,175.05099, 8.7860e-003
 652.08200,175.23266, 8.7933e-003
 652.58200,175.41426, 8.8007e-003
 653.08200,175.59523, 8.8086e-003
 653.58200,175.77542, 8.8158e-003
 654.08200,175.95554, 8.8237e-003
 654.58200,176.13555, 8.8310e-003
 655.08200,176.31595, 8.8389e-003
 655.58200,176.49686, 8.8462e-003
 656.08200,176.67815, 8.8536e-003
 656.58200,176.85964, 8.8611e-003
 657.08200,177.04148, 8.8685e-003
 657.58200,177.22334, 8.8759e-003
 658.08200,177.40482, 8.8829e-003
 658.58200,177.58636, 8.8907e-003
 659.08200,177.76833, 8.8980e-003
 659.58200,177.95016, 8.9054e-003
 660.08200,178.13196, 8.9129e-003
 660.58200,178.31349, 8.9202e-003
 661.08200,178.49406, 8.9278e-003
 661.58200,178.67489, 8.9351e-003
 662.08200,178.85596, 8.9423e-003
 662.58200,179.03740, 8.9497e-003
 663.08200,179.21925, 8.9570e-003
 663.58200,179.40107, 8.9630e-003
 664.08200,179.58295, 8.9708e-003
 664.58200,179.76462, 8.9783e-003
 665.08200,179.94644, 8.9856e-003
 665.58200,180.12843, 8.9935e-003
 666.08200,180.31059, 9.0007e-003
 666.58200,180.49338, 9.0080e-003
 667.08200,180.67608, 9.0156e-003
 667.58200,180.85878, 9.0233e-003
 668.08200,181.04125, 9.0309e-003
 668.58200,181.22357, 9.0381e-003
 669.08200,181.40597, 9.0456e-003
 669.58200,181.58800, 9.0532e-003
 670.08200,181.77053, 9.0608e-003
 670.58200,181.95290, 9.0657e-003
 671.08200,182.13569, 9.0732e-003
 671.58200,182.31916, 9.0806e-003
 672.08200,182.50224, 9.0886e-003
 672.58200,182.68539, 9.0959e-003
 673.08200,182.86853, 9.1033e-003
 673.58200,183.05166, 9.1104e-003
 674.08200,183.23564, 9.1184e-003
 674.58200,183.42020, 9.1256e-003
 675.08200,183.60387, 9.1332e-003
 675.58200,183.78775, 9.1410e-003
 676.08200,183.97098, 9.1478e-003
 676.58200,184.15387, 9.1557e-003
 677.08200,184.33701, 9.1628e-003
 677.58200,184.51984, 9.1697e-003
 678.08200,184.70323, 9.1775e-003
 678.58200,184.88677, 9.1846e-003
 679.08200,185.07054, 9.1927e-003
 679.58200,185.25461, 9.2003e-003
 680.08200,185.43849, 9.2080e-003
 680.58200,185.62260, 9.2162e-003
 681.08200,185.80786, 9.2238e-003
 681.58200,185.99401, 9.2314e-003
 682.08200,186.18142, 9.2389e-003
 682.58200,186.36994, 9.2469e-003
 683.08200,186.55888, 9.2548e-003
 683.58200,186.74851, 9.2629e-003
 684.08200,186.93915, 9.2712e-003
 684.58200,187.13051, 9.2790e-003
 685.08200,187.32188, 9.2878e-003
 685.58200,187.51370, 9.2955e-003
 686.08200,187.70544, 9.3031e-003
 686.58200,187.89724, 9.3110e-003
 687.08200,188.08911, 9.3182e-003
 687.58200,188.27988, 9.3261e-003
 688.08200,188.46977, 9.3331e-003
 688.58200,188.65898, 9.3402e-003
 689.08200,188.84755, 9.3473e-003
 689.58200,189.03552, 9.3543e-003
 690.08200,189.22158, 9.3617e-003
 690.58200,189.40606, 9.3684e-003
 691.08200,189.58982, 9.3759e-003
 691.58200,189.77248, 9.3822e-003
 692.08200,189.95560, 9.3879e-003
 692.58200,190.13845, 9.3953e-003
 693.08200,190.32084, 9.4020e-003
 693.58200,190.50279, 9.4091e-003
 694.08200,190.68418, 9.4167e-003
 694.58200,190.86619, 9.4238e-003
 695.08200,191.04884, 9.4311e-003
 695.58200,191.23243, 9.4377e-003
 696.08200,191.41654, 9.4443e-003
 696.58200,191.60080, 9.4511e-003
 697.08200,191.78488, 9.4584e-003
 697.58200,191.96956, 9.4657e-003
 698.08200,192.15455, 9.4730e-003
 698.58200,192.34025, 9.4801e-003
 699.08200,192.52629, 9.4871e-003
 699.58200,192.71224, 9.4936e-003
 700.08200,192.89873, 9.5008e-003
 700.58200,193.08435, 9.5078e-003
 701.08200,193.27021, 9.5152e-003
 701.58200,193.45614, 9.5223e-003
 702.08200,193.64207, 9.5296e-003
 702.58200,193.82898, 9.5373e-003
 703.08200,194.01586, 9.5438e-003
 703.58200,194.20291, 9.5517e-003
 704.08200,194.38990, 9.5569e-003
 704.58200,194.57719, 9.5644e-003
 705.08200,194.76504, 9.5712e-003
 705.58200,194.95342, 9.5785e-003
 706.08200,195.14261, 9.5859e-003
 706.58200,195.33190, 9.5927e-003
 707.08200,195.52137, 9.5986e-003
 707.58200,195.71084, 9.6057e-003
 708.08200,195.90026, 9.6134e-003
 708.58200,196.09013, 9.6203e-003
 709.08200,196.28010, 9.6270e-003
 709.58200,196.47024, 9.6337e-003
 710.08200,196.66039, 9.6413e-003
 710.58200,196.85014, 9.6486e-003
 711.08200,197.03955, 9.6556e-003
 711.58200,197.22861, 9.6629e-003
 712.08200,197.41754, 9.6705e-003
 712.58200,197.60654, 9.6766e-003
 713.08200,197.79577, 9.6828e-003
 713.58200,197.98489, 9.6867e-003
 714.08200,198.17409, 9.6934e-003
 714.58200,198.36368, 9.7001e-003
 715.08200,198.55384, 9.7077e-003
 715.58200,198.74443, 9.7147e-003
 716.08200,198.93491, 9.7222e-003
 716.58200,199.12515, 9.7291e-003
 717.08200,199.31400, 9.7362e-003
 717.58200,199.50291, 9.7435e-003
 718.08200,199.69214, 9.7506e-003
 718.58200,199.88199, 9.7575e-003
 719.08200,200.07290, 9.7650e-003
 719.58200,200.26394, 9.7719e-003
 720.08200,200.45541, 9.7790e-003
 720.58200,200.64662, 9.7857e-003
 721.08200,200.83792, 9.7932e-003
 721.58200,201.02895, 9.8008e-003
 722.08200,201.22011, 9.8075e-003
 722.58200,201.41149, 9.8146e-003
 723.08200,201.60265, 9.8220e-003
 723.58200,201.79369, 9.8291e-003
 724.08200,201.98423, 9.8356e-003
 724.58200,202.17461, 9.8423e-003
 725.08200,202.36512, 9.8498e-003
 725.58200,202.55553, 9.8572e-003
 726.08200,202.74665, 9.8645e-003
 726.58200,202.93776, 9.8718e-003
 727.08200,203.12916, 9.8792e-003
 727.58200,203.32079, 9.8861e-003
 728.08200,203.51230, 9.8935e-003
 728.58200,203.70380, 9.8998e-003
 729.08200,203.89531, 9.9069e-003
 729.58200,204.08716, 9.9144e-003
 730.08200,204.27905, 9.9215e-003
 730.58200,204.47161, 9.9286e-003
 731.08200,204.66423, 9.9359e-003
 731.58200,204.85608, 9.9431e-003
 732.08200,205.04752, 9.9504e-003
 732.58200,205.23881, 9.9577e-003
 733.08200,205.42938, 9.9647e-003
 733.58200,205.62057, 9.9711e-003
 734.08200,205.81175, 9.9775e-003
 734.58200,206.00309, 9.9851e-003
 735.08200,206.19494, 9.9922e-003
 735.58200,206.38723, 9.9988e-003
 736.08200,206.57976, 1.0007e-002
 736.58200,206.77199, 1.0014e-002
 737.08200,206.96425, 1.0021e-002
 737.58200,207.15648, 1.0028e-002
 738.08200,207.34885, 1.0036e-002
 738.58200,207.54065, 1.0040e-002
 739.08200,207.73240, 1.0047e-002
 739.58200,207.92403, 1.0054e-002
 740.08200,208.11558, 1.0061e-002
 740.58200,208.30763, 1.0068e-002
 741.08200,208.49953, 1.0076e-002
 741.58200,208.69110, 1.0083e-002
 742.08200,208.88253, 1.0090e-002
 742.58200,209.07426, 1.0097e-002
 743.08200,209.26649, 1.0104e-002
 743.58200,209.45854, 1.0110e-002
 744.08200,209.65034, 1.0117e-002
 744.58200,209.84198, 1.0124e-002
 745.08200,210.03304, 1.0132e-002
 745.58200,210.22479, 1.0140e-002
 746.08200,210.41663, 1.0147e-002
 746.58200,210.60829, 1.0154e-002
 747.08200,210.80000, 1.0162e-002
 747.58200,210.99157, 1.0169e-002
 748.08200,211.18331, 1.0176e-002
 748.58200,211.37481, 1.0183e-002
 749.08200,211.56669, 1.0190e-002
 749.58200,211.75867, 1.0197e-002
 750.08200,211.95120, 1.0204e-002
 750.58200,212.14398, 1.0211e-002
 751.08200,212.33713, 1.0219e-002
 751.58200,212.53065, 1.0226e-002
 752.08200,212.72471, 1.0233e-002
 752.58200,212.91936, 1.0241e-002
 753.08200,213.11466, 1.0248e-002
 753.58200,213.31079, 1.0256e-002
 754.08200,213.50728, 1.0265e-002
 754.58200,213.70434, 1.0273e-002
 755.08200,213.90177, 1.0281e-002
 755.58200,214.09995, 1.0287e-002
 756.08200,214.29907, 1.0295e-002
 756.58200,214.49846, 1.0303e-002
 757.08200,214.69820, 1.0310e-002
 757.58200,214.89805, 1.0318e-002
 758.08200,215.09809, 1.0326e-002
 758.58200,215.29790, 1.0331e-002
 759.08200,215.49640, 1.0339e-002
 759.58200,215.69368, 1.0347e-002
 760.08200,215.88978, 1.0354e-002
 760.58200,216.08446, 1.0361e-002
 761.08200,216.27844, 1.0366e-002
 761.58200,216.47108, 1.0373e-002
 762.08200,216.66299, 1.0380e-002
 762.58200,216.85363, 1.0386e-002
 763.08200,217.04308, 1.0393e-002
 763.58200,217.23127, 1.0400e-002
 764.08200,217.41865, 1.0406e-002
 764.58200,217.60581, 1.0412e-002
 765.08200,217.79308, 1.0419e-002
 765.58200,217.98054, 1.0426e-002
 766.08200,218.16863, 1.0434e-002
 766.58200,218.35702, 1.0440e-002
 767.08200,218.54524, 1.0447e-002
 767.58200,218.73333, 1.0454e-002
 768.08200,218.92087, 1.0461e-002
 768.58200,219.10871, 1.0468e-002
 769.08200,219.29638, 1.0474e-002
 769.58200,219.48430, 1.0481e-002
 770.08200,219.67334, 1.0488e-002
 770.58200,219.86244, 1.0495e-002
 771.08200,220.05178, 1.0502e-002
 771.58200,220.24132, 1.0510e-002
 772.08200,220.43020, 1.0517e-002
 772.58200,220.61932, 1.0524e-002
 773.08200,220.80881, 1.0531e-002
 773.58200,220.99873, 1.0538e-002
 774.08200,221.18923, 1.0545e-002
 774.58200,221.38017, 1.0551e-002
 775.08200,221.57124, 1.0559e-002
 775.58200,221.76209, 1.0566e-002
 776.08200,221.95231, 1.0573e-002
 776.58200,222.14271, 1.0580e-002
 777.08200,222.33344, 1.0588e-002
 777.58200,222.52466, 1.0595e-002
 778.08200,222.71729, 1.0602e-002
 778.58200,222.91028, 1.0608e-002
 779.08200,223.10366, 1.0615e-002
 779.58200,223.29670, 1.0622e-002
 780.08200,223.48965, 1.0629e-002
 780.58200,223.68284, 1.0636e-002
 781.08200,223.87584, 1.0643e-002
 781.58200,224.06903, 1.0650e-002
 782.08200,224.26227, 1.0658e-002
 782.58200,224.45581, 1.0665e-002
 783.08200,224.64939, 1.0672e-002
 783.58200,224.84284, 1.0679e-002
 784.08200,225.03632, 1.0686e-002
 784.58200,225.22980, 1.0694e-002
 785.08200,225.42349, 1.0701e-002
 785.58200,225.61762, 1.0708e-002
 786.08200,225.81211, 1.0714e-002
 786.58200,226.00737, 1.0722e-002
 787.08200,226.20227, 1.0729e-002
 787.58200,226.39687, 1.0736e-002
 788.08200,226.59124, 1.0743e-002
 788.58200,226.78589, 1.0751e-002
 789.08200,226.98274, 1.0758e-002
 789.58200,227.18223, 1.0765e-002
 790.08200,227.38470, 1.0770e-002
 790.58200,227.58991, 1.0778e-002
 791.08200,227.79689, 1.0786e-002
 791.58200,228.00394, 1.0794e-002
 792.08200,228.21116, 1.0800e-002
 792.58200,228.41811, 1.0806e-002
 793.08200,228.62447, 1.0813e-002
 793.58200,228.83101, 1.0821e-002
 794.08200,229.03708, 1.0828e-002
 794.58200,229.24291, 1.0835e-002
 795.08200,229.44881, 1.0842e-002
 795.58200,229.65550, 1.0850e-002
 796.08200,229.86320, 1.0857e-002
 796.58200,230.07259, 1.0864e-002
 797.08200,230.28243, 1.0872e-002
 797.58200,230.49261, 1.0879e-002
 798.08200,230.70321, 1.0887e-002
 798.58200,230.91593, 1.0894e-002
 799.08200,231.13113, 1.0901e-002
 799.58200,231.35153, 1.0909e-002
 800.08200,231.57751, 1.0919e-002
 800.58200,231.80928, 1.0928e-002
 801.08200,232.04324, 1.0936e-002
 801.58200,232.27651, 1.0945e-002
 802.08200,232.50735, 1.0953e-002
 802.58200,232.73489, 1.0961e-002
 803.08200,232.95830, 1.0969e-002
 803.58200,233.17872, 1.0976e-002
 804.08200,233.39652, 1.0984e-002
 804.58200,233.61281, 1.0991e-002
 805.08200,233.82885, 1.0999e-002
 805.58200,234.04587, 1.1006e-002
 806.08200,234.26364, 1.1014e-002
 806.58200,234.48228, 1.1022e-002
 807.08200,234.69938, 1.1028e-002
 807.58200,234.91480, 1.1035e-002
 808.08200,235.12817, 1.1042e-002
 808.58200,235.34006, 1.1049e-002
 809.08200,235.55070, 1.1054e-002
 809.58200,235.76013, 1.1060e-002
 810.08200,235.96876, 1.1067e-002
 810.58200,236.17650, 1.1074e-002
 811.08200,236.38447, 1.1081e-002
 811.58200,236.59332, 1.1088e-002
 812.08200,236.80379, 1.1095e-002
 812.58200,237.01400, 1.1102e-002
 813.08200,237.22319, 1.1109e-002
 813.58200,237.43017, 1.1115e-002
 814.08200,237.63549, 1.1121e-002
 814.58200,237.83934, 1.1127e-002
 815.08200,238.04111, 1.1133e-002
 815.58200,238.24089, 1.1140e-002
 816.08200,238.43921, 1.1146e-002
 816.58200,238.63695, 1.1152e-002
 817.08200,238.83460, 1.1157e-002
 817.58200,239.03293, 1.1164e-002
 818.08200,239.23143, 1.1171e-002
 818.58200,239.43165, 1.1177e-002
 819.08200,239.63315, 1.1185e-002
 819.58200,239.83543, 1.1192e-002
 820.08200,240.03810, 1.1199e-002
 820.58200,240.24128, 1.1207e-002
 821.08200,240.44467, 1.1214e-002
 821.58200,240.64824, 1.1221e-002
 822.08200,240.85125, 1.1226e-002
 822.58200,241.05344, 1.1232e-002
 823.08200,241.25577, 1.1239e-002
 823.58200,241.45782, 1.1246e-002
 824.08200,241.65952, 1.1253e-002
 824.58200,241.86070, 1.1259e-002
 825.08200,242.06080, 1.1266e-002
 825.58200,242.26133, 1.1273e-002
 826.08200,242.46122, 1.1280e-002
 826.58200,242.66100, 1.1287e-002
 827.08200,242.86027, 1.1294e-002
 827.58200,243.05941, 1.1298e-002
 828.08200,243.25787, 1.1304e-002
 828.58200,243.45718, 1.1311e-002
 829.08200,243.65700, 1.1318e-002
 829.58200,243.85630, 1.1325e-002
 830.08200,244.05490, 1.1331e-002
 830.58200,244.25235, 1.1338e-002
 831.08200,244.44946, 1.1345e-002
 831.58200,244.64622, 1.1351e-002
 832.08200,244.84450, 1.1358e-002
 832.58200,245.04182, 1.1365e-002
 833.08200,245.23898, 1.1372e-002
 833.58200,245.43544, 1.1379e-002
 834.08200,245.63123, 1.1385e-002
 834.58200,245.82647, 1.1392e-002
 835.08200,246.02281, 1.1399e-002
 835.58200,246.21880, 1.1406e-002
 836.08200,246.41490, 1.1411e-002
 836.58200,246.61088, 1.1418e-002
 837.08200,246.80586, 1.1425e-002
 837.58200,247.00038, 1.1432e-002
 838.08200,247.19432, 1.1439e-002
 838.58200,247.38865, 1.1446e-002
 839.08200,247.58231, 1.1452e-002
 839.58200,247.77669, 1.1460e-002
 840.08200,247.97112, 1.1467e-002
 840.58200,248.16500, 1.1473e-002
 841.08200,248.35995, 1.1481e-002
 841.58200,248.55413, 1.1488e-002
 842.08200,248.74778, 1.1495e-002
 842.58200,248.94068, 1.1501e-002
 843.08200,249.13302, 1.1508e-002
 843.58200,249.32637, 1.1515e-002
 844.08200,249.52003, 1.1520e-002
 844.58200,249.71484, 1.1527e-002
 845.08200,249.90879, 1.1534e-002
 845.58200,250.10287, 1.1541e-002
 846.08200,250.29728, 1.1548e-002
 846.58200,250.49097, 1.1556e-002
 847.08200,250.68549, 1.1563e-002
 847.58200,250.87945, 1.1570e-002
 848.08200,251.07275, 1.1574e-002
 848.58200,251.26631, 1.1581e-002
 849.08200,251.45918, 1.1588e-002
 849.58200,251.65207, 1.1595e-002
 850.08200,251.84499, 1.1602e-002
 850.58200,252.03795, 1.1609e-002
 851.08200,252.23114, 1.1616e-002
 851.58200,252.42367, 1.1623e-002
 852.08200,252.61655, 1.1631e-002
 852.58200,252.81052, 1.1635e-002
 853.08200,253.00481, 1.1642e-002
 853.58200,253.20098, 1.1649e-002
 854.08200,253.39734, 1.1657e-002
 854.58200,253.59525, 1.1664e-002
 855.08200,253.79454, 1.1672e-002
 855.58200,253.99548, 1.1680e-002
 856.08200,254.19721, 1.1687e-002
 856.58200,254.39977, 1.1695e-002
 857.08200,254.60070, 1.1702e-002
 857.58200,254.79800, 1.1708e-002
 858.08200,254.99097, 1.1714e-002
 858.58200,255.17843, 1.1721e-002
 859.08200,255.36426, 1.1727e-002
 859.58200,255.55152, 1.1734e-002
 860.08200,255.74294, 1.1742e-002
 860.58200,255.94109, 1.1750e-002
 861.08200,256.14610, 1.1759e-002
 861.58200,256.35864, 1.1769e-002
 862.08200,256.57627, 1.1777e-002
 862.58200,256.79655, 1.1785e-002
 863.08200,257.01559, 1.1789e-002
 863.58200,257.23074, 1.1797e-002
 864.08200,257.44414, 1.1804e-002
 864.58200,257.65472, 1.1811e-002
 865.08200,257.86494, 1.1818e-002
 865.58200,258.07400, 1.1825e-002
 866.08200,258.28435, 1.1832e-002
 866.58200,258.49818, 1.1839e-002
 867.08200,258.71661, 1.1847e-002
 867.58200,258.93983, 1.1855e-002
 868.08200,259.16620, 1.1863e-002
 868.58200,259.39287, 1.1871e-002
 869.08200,259.61580, 1.1875e-002
 869.58200,259.83181, 1.1881e-002
 870.08200,260.03899, 1.1888e-002
 870.58200,260.23862, 1.1893e-002
 871.08200,260.43227, 1.1899e-002
 871.58200,260.62200, 1.1905e-002
 872.08200,260.80979, 1.1911e-002
 872.58200,260.99598, 1.1917e-002
 873.08200,261.18195, 1.1924e-002
 873.58200,261.36815, 1.1931e-002
 874.08200,261.55465, 1.1938e-002
 874.58200,261.74233, 1.1944e-002
 875.08200,261.93039, 1.1951e-002
 875.58200,262.11932, 1.1958e-002
 876.08200,262.30920, 1.1966e-002
 876.58200,262.50040, 1.1973e-002
 877.08200,262.69266, 1.1980e-002
 877.58200,262.88622, 1.1986e-002
 878.08200,263.08108, 1.1990e-002
 878.58200,263.27594, 1.1997e-002
 879.08200,263.47125, 1.2004e-002
 879.58200,263.66624, 1.2011e-002
 880.08200,263.86125, 1.2018e-002
 880.58200,264.05574, 1.2025e-002
 881.08200,264.24967, 1.2033e-002
 881.58200,264.44415, 1.2039e-002
 882.08200,264.63854, 1.2046e-002
 882.58200,264.83354, 1.2053e-002
 883.08200,265.02908, 1.2061e-002
 883.58200,265.22343, 1.2067e-002
 884.08200,265.41852, 1.2074e-002
 884.58200,265.61399, 1.2083e-002
 885.08200,265.81035, 1.2090e-002
 885.58200,266.00716, 1.2097e-002
 886.08200,266.20399, 1.2104e-002
 886.58200,266.40163, 1.2113e-002
 887.08200,266.59957, 1.2120e-002
 887.58200,266.79839, 1.2127e-002
 888.08200,266.99675, 1.2134e-002
 888.58200,267.19578, 1.2142e-002
 889.08200,267.39459, 1.2149e-002
 889.58200,267.59293, 1.2156e-002
 890.08200,267.79145, 1.2164e-002
 890.58200,267.98953, 1.2170e-002
 891.08200,268.18687, 1.2179e-002
 891.58200,268.38466, 1.2194e-002
 892.08200,268.58158, 1.2204e-002
 892.58200,268.77842, 1.2216e-002
 893.08200,268.97518, 1.2228e-002
 893.58200,269.17123, 1.2245e-002
 894.08200,269.36682, 1.2261e-002
 894.58200,269.56337, 1.2275e-002
 895.08200,269.76036, 1.2289e-002
 895.58200,269.95778, 1.2303e-002
 896.08200,270.15503, 1.2329e-002
 896.58200,270.35149, 1.2355e-002
 897.08200,270.54764, 1.2394e-002
 897.58200,270.74328, 1.2434e-002
 898.08200,270.93835, 1.2506e-002
 898.58200,271.13324, 1.2658e-002
 899.08200,271.32827, 1.2871e-002
 899.58200,271.52395, 1.3089e-002
 900.08200,271.72106, 1.3276e-002
 900.58200,271.91900, 1.3470e-002
 901.08200,272.11807, 1.3685e-002
 901.58200,272.31809, 1.3962e-002
 902.08200,272.51840, 1.4201e-002
 902.58200,272.71938, 1.4351e-002
 903.08200,272.92023, 1.4490e-002
 903.58200,273.12172, 1.4637e-002
 904.08200,273.32302, 1.4775e-002
 904.58200,273.52409, 1.4894e-002
 905.08200,273.72464, 1.5003e-002
 905.58200,273.92503, 1.5101e-002
 906.08200,274.12576, 1.5246e-002
 906.58200,274.32818, 1.5384e-002
 907.08200,274.53164, 1.5685e-002
 907.58200,274.73690, 1.5949e-002
 908.08200,274.94425, 1.6255e-002
 908.58200,275.15313, 1.6522e-002
 909.08200,275.36516, 1.6778e-002
 909.58200,275.58048, 1.6966e-002
 910.08200,275.79871, 1.7112e-002
 910.58200,276.01963, 1.7228e-002
 911.08200,276.24179, 1.7330e-002
 911.58200,276.46703, 1.7430e-002
 912.08200,276.69828, 1.7531e-002
 912.58200,276.93849, 1.7641e-002
 913.08200,277.18765, 1.7734e-002
 913.58200,277.44754, 1.7829e-002
 914.08200,277.72370, 1.7921e-002
 914.58200,278.02121, 1.8009e-002
 915.08200,278.33401, 1.8104e-002
 915.58200,278.64075, 1.8186e-002
 916.08200,278.92335, 1.8276e-002
 916.58200,279.17787, 1.8344e-002
 917.08200,279.40804, 1.8398e-002
 917.58200,279.62068, 1.8443e-002
 918.08200,279.82116, 1.8480e-002
 918.58200,280.01504, 1.8513e-002
 919.08200,280.20571, 1.8544e-002
 919.58200,280.39539, 1.8572e-002
 920.08200,280.58532, 1.8600e-002
 920.58200,280.77449, 1.8626e-002
 921.08200,280.96261, 1.8651e-002
 921.58200,281.14981, 1.8677e-002
 922.08200,281.33644, 1.8701e-002
 922.58200,281.52349, 1.8724e-002
 923.08200,281.71137, 1.8759e-002
 923.58200,281.89976, 1.8791e-002
 924.08200,282.08873, 1.8821e-002
 924.58200,282.27730, 1.8856e-002
 925.08200,282.46560, 1.8889e-002
 925.58200,282.65347, 1.8923e-002
 926.08200,282.84092, 1.8954e-002
 926.58200,283.02821, 1.8984e-002
 927.08200,283.21624, 1.9012e-002
 927.58200,283.40516, 1.9036e-002
 928.08200,283.59536, 1.9057e-002
 928.58200,283.78711, 1.9078e-002
 929.08200,283.97910, 1.9099e-002
 929.58200,284.17121, 1.9119e-002
 930.08200,284.36355, 1.9139e-002
 930.58200,284.55600, 1.9158e-002
 931.08200,284.74849, 1.9177e-002
 931.58200,284.94018, 1.9196e-002
 932.08200,285.13108, 1.9219e-002
 932.58200,285.32225, 1.9239e-002
 933.08200,285.51373, 1.9259e-002
 933.58200,285.70621, 1.9279e-002
 934.08200,285.89873, 1.9300e-002
 934.58200,286.09047, 1.9324e-002
 935.08200,286.28167, 1.9368e-002
 935.58200,286.47259, 1.9411e-002
 936.08200,286.66369, 1.9437e-002
 936.58200,286.85487, 1.9462e-002
 937.08200,287.04618, 1.9485e-002
 937.58200,287.23662, 1.9506e-002
 938.08200,287.42682, 1.9526e-002
 938.58200,287.61670, 1.9545e-002
 939.08200,287.80703, 1.9563e-002
 939.58200,287.99761, 1.9580e-002
 940.08200,288.18890, 1.9597e-002
 940.58200,288.38062, 1.9613e-002
 941.08200,288.57177, 1.9629e-002
 941.58200,288.76309, 1.9645e-002
 942.08200,288.95391, 1.9661e-002
 942.58200,289.14436, 1.9684e-002
 943.08200,289.33516, 1.9704e-002
 943.58200,289.52551, 1.9723e-002
 944.08200,289.71608, 1.9739e-002
 944.58200,289.90680, 1.9753e-002
 945.08200,290.09790, 1.9768e-002
 945.58200,290.28999, 1.9782e-002
 946.08200,290.48219, 1.9795e-002
 946.58200,290.67414, 1.9808e-002
 947.08200,290.86458, 1.9820e-002
 947.58200,291.05411, 1.9832e-002
 948.08200,291.24305, 1.9843e-002
 948.58200,291.43161, 1.9855e-002
 949.08200,291.62029, 1.9867e-002
 949.58200,291.80826, 1.9878e-002
 950.08200,291.99524, 1.9889e-002
 950.58200,292.18077, 1.9900e-002
 951.08200,292.36557, 1.9911e-002
 951.58200,292.55062, 1.9922e-002
 952.08200,292.73603, 1.9934e-002
 952.58200,292.92246, 1.9945e-002
 953.08200,293.10947, 1.9955e-002
 953.58200,293.29661, 1.9966e-002
 954.08200,293.48377, 1.9977e-002
 954.58200,293.67016, 1.9988e-002
 955.08200,293.85479, 1.9998e-002
 955.58200,294.03733, 2.0008e-002
 956.08200,294.21851, 2.0017e-002
 956.58200,294.39996, 2.0027e-002
 957.08200,294.58272, 2.0037e-002
 957.58200,294.76759, 2.0048e-002
 958.08200,294.95555, 2.0060e-002
 958.58200,295.14681, 2.0072e-002
 959.08200,295.34104, 2.0085e-002
 959.58200,295.53828, 2.0096e-002
 960.08200,295.73545, 2.0107e-002
 960.58200,295.93133, 2.0118e-002
 961.08200,296.12480, 2.0128e-002
 961.58200,296.31562, 2.0138e-002
 962.08200,296.50462, 2.0147e-002
 962.58200,296.69308, 2.0157e-002
 963.08200,296.88223, 2.0167e-002
 963.58200,297.07262, 2.0178e-002
 964.08200,297.26550, 2.0189e-002
 964.58200,297.46066, 2.0200e-002
 965.08200,297.65710, 2.0211e-002
 965.58200,297.85350, 2.0221e-002
 966.08200,298.04812, 2.0232e-002
 966.58200,298.24003, 2.0241e-002
 967.08200,298.42955, 2.0251e-002
 967.58200,298.61638, 2.0260e-002
 968.08200,298.80186, 2.0270e-002
 968.58200,298.98608, 2.0280e-002
 969.08200,299.16904, 2.0290e-002
 969.58200,299.35081, 2.0299e-002
 970.08200,299.53149, 2.0309e-002
 970.58200,299.71103, 2.0319e-002
 971.08200,299.89003, 2.0328e-002
 971.58200,300.06913, 2.0339e-002
 972.08200,300.24779, 2.0348e-002
 972.58200,300.42673, 2.0359e-002
 973.08200,300.60647, 2.0369e-002
 973.58200,300.78656, 2.0379e-002
 974.08200,300.96798, 2.0390e-002
 974.58200,301.15062, 2.0400e-002
 975.08200,301.33387, 2.0410e-002
 975.58200,301.51767, 2.0421e-002
 976.08200,301.70124, 2.0431e-002
 976.58200,301.88405, 2.0442e-002
 977.08200,302.06655, 2.0452e-002
 977.58200,302.24912, 2.0462e-002
 978.08200,302.43214, 2.0473e-002
 978.58200,302.61613, 2.0483e-002
 979.08200,302.80039, 2.0494e-002
 979.58200,302.98493, 2.0504e-002
 980.08200,303.16873, 2.0515e-002
 980.58200,303.35237, 2.0526e-002
 981.08200,303.53604, 2.0536e-002
 981.58200,303.71910, 2.0546e-002
 982.08200,303.90206, 2.0557e-002
 982.58200,304.08447, 2.0567e-002
 983.08200,304.26634, 2.0577e-002
 983.58200,304.44778, 2.0587e-002
 984.08200,304.62877, 2.0597e-002
 984.58200,304.80933, 2.0607e-002
 985.08200,304.98916, 2.0617e-002
 985.58200,305.16884, 2.0628e-002
 986.08200,305.34922, 2.0639e-002
 986.58200,305.53007, 2.0649e-002
 987.08200,305.71255, 2.0659e-002
 987.58200,305.89636, 2.0669e-002
 988.08200,306.08083, 2.0680e-002
 988.58200,306.26664, 2.0690e-002
 989.08200,306.45261, 2.0700e-002
 989.58200,306.63864, 2.0712e-002
 990.08200,306.82515, 2.0722e-002
 990.58200,307.01170, 2.0731e-002
 991.08200,307.19811, 2.0742e-002
 991.58200,307.38444, 2.0752e-002
 992.08200,307.57037, 2.0762e-002
 992.58200,307.75635, 2.0772e-002
 993.08200,307.94221, 2.0782e-002
 993.58200,308.12800, 2.0792e-002
 994.08200,308.31367, 2.0801e-002
 994.58200,308.49840, 2.0811e-002
 995.08200,308.68274, 2.0821e-002
 995.58200,308.86645, 2.0830e-002
 996.08200,309.04980, 2.0840e-002
 996.58200,309.23350, 2.0849e-002
 997.08200,309.41809, 2.0859e-002
 997.58200,309.60333, 2.0869e-002
 998.08200,309.78952, 2.0878e-002
 998.58200,309.97642, 2.0888e-002
 999.08200,310.16358, 2.0898e-002
 999.58200,310.35139, 2.0906e-002
1000.08200,310.53950, 2.0916e-002
1000.58200,310.72699, 2.0925e-002
1001.08200,310.91447, 2.0934e-002
1001.58200,311.10111, 2.0944e-002
1002.08200,311.28755, 2.0953e-002
1002.58200,311.47373, 2.0962e-002
1003.08200,311.65869, 2.0971e-002
1003.58200,311.84301, 2.0979e-002
1004.08200,312.02602, 2.0988e-002
1004.58200,312.20932, 2.0996e-002
1005.08200,312.39391, 2.1005e-002
1005.58200,312.58026, 2.1015e-002
1006.08200,312.76865, 2.1024e-002
1006.58200,312.95802, 2.1033e-002
1007.08200,313.14735, 2.1042e-002
1007.58200,313.33592, 2.1051e-002
1008.08200,313.52428, 2.1060e-002
1008.58200,313.71211, 2.1068e-002
1009.08200,313.89946, 2.1077e-002
1009.58200,314.08656, 2.1086e-002
1010.08200,314.27313, 2.1094e-002
1010.58200,314.46027, 2.1103e-002
1011.08200,314.64965, 2.1111e-002

